1:ItNr	2:Metric	3a:Time	3b:StepSize	4:||Gradient||	Time[ms]
0	58595.257859	0.000000	0.000443	4334.718761	197.9
1	52326.850739	0.000000	0.000443	4740.061137	1.3
2	39850.315204	0.000000	0.000443	4950.581896	1.3
3	28901.940002	0.000000	0.000443	4802.196704	1.3
4	20270.714403	0.000000	0.000443	4447.026918	1.3
5	12025.752338	0.000000	0.000443	3583.224333	1.3
6	7029.171809	0.000000	0.000443	2597.493563	1.4
7	4708.931067	0.000000	0.000443	1572.931859	1.3
8	3838.936880	0.000000	0.000443	994.389539	1.4
9	3477.910424	0.000000	0.000443	608.860828	1.4
10	3386.080699	0.000000	0.000443	442.692186	1.4
11	3267.736813	0.000000	0.000443	302.648101	1.3
12	3289.119528	0.000000	0.000443	252.382526	1.4
13	3253.287018	0.000000	0.000443	237.144122	1.6
14	3190.063251	0.000000	0.000443	196.871157	1.7
15	3284.114576	0.000000	0.000443	131.761724	2.2
16	3220.767489	0.000000	0.000443	124.646831	2.2
17	3268.330629	0.000000	0.000443	93.749539	2.2
18	3196.533733	0.000000	0.000443	110.265054	2.2
19	3190.564496	0.000000	0.000443	73.490854	2.2
20	3390.313772	0.000000	0.000443	147.239090	1.8
21	3193.162458	0.000000	0.000443	71.741586	2.9
22	3154.277515	0.000000	0.000443	74.717267	2.9
23	3117.953613	0.000000	0.000443	73.293653	3.0
24	3123.338592	0.000000	0.000443	124.093172	2.9
25	3198.388359	0.000000	0.000443	70.134596	4.6
26	3171.976318	0.023328	0.000443	76.127081	2.9
27	3103.461349	0.017151	0.000443	115.106883	2.9
28	3033.020448	0.030367	0.000443	58.372253	2.9
29	3254.676376	0.022087	0.000443	102.491341	3.0
30	3072.168843	0.017228	0.000443	77.221923	2.3
31	3148.308147	0.007749	0.000443	54.605808	2.3
32	3128.698757	0.000000	0.000443	64.665738	2.5
33	3066.516338	0.000000	0.000443	108.147611	2.2
34	3169.096091	0.000000	0.000443	59.116440	2.1
35	3151.321167	0.000000	0.000443	59.937018	2.1
36	3251.809462	0.000000	0.000443	81.587695	2.0
37	3166.077220	0.000000	0.000443	155.371008	4.4
38	3199.823460	0.000000	0.000443	110.114506	2.5
39	3181.316733	0.746353	0.000428	50.861369	2.4
40	3194.311152	0.740372	0.000428	75.823952	2.4
41	3169.615494	0.732030	0.000428	54.091523	2.4
42	3262.677230	0.723421	0.000429	118.001463	2.4
43	3124.945893	0.713139	0.000429	59.061721	2.4
44	3199.701212	0.715239	0.000429	63.066345	2.6
45	3177.899241	0.705690	0.000429	60.067872	2.0
46	3201.836669	0.695998	0.000429	93.432963	1.8
47	2980.774961	0.685310	0.000429	53.695490	1.8
48	3104.484904	0.677460	0.000429	70.969142	1.8
49	3217.934453	0.667870	0.000430	66.308808	1.8
50	3199.782146	0.664010	0.000430	65.609205	1.8
51	3137.994781	0.653961	0.000430	118.995527	1.9
52	3199.697075	0.653577	0.000430	85.511958	2.0
53	3146.195995	0.644361	0.000430	74.684385	2.0
54	3200.328470	0.642081	0.000430	86.959771	2.0
55	3073.511609	0.642526	0.000430	81.278409	2.0
56	3146.940428	0.642750	0.000430	72.628331	2.0
57	3007.910232	0.642059	0.000430	51.861962	2.1
58	3052.469556	0.637260	0.000430	111.315574	2.1
59	3140.669061	0.627590	0.000430	67.606514	2.2
60	3020.402426	0.617479	0.000431	108.342794	2.1
61	3084.934333	0.606334	0.000431	61.511725	2.1
62	3163.601555	0.610572	0.000431	169.302126	1.8
63	3185.144016	0.599328	0.000431	68.905016	1.8
64	3064.844741	0.632849	0.000430	84.993904	1.9
65	3082.720225	0.632192	0.000430	91.447786	1.8
66	3131.413036	0.656932	0.000430	85.240432	1.9
67	3112.354100	0.651730	0.000430	41.332861	1.8
68	3176.324733	0.643206	0.000430	51.846536	1.8
69	3129.219046	0.636788	0.000430	64.782572	1.8
70	3059.370209	0.627485	0.000430	76.524478	1.8
71	3243.575957	0.619178	0.000431	62.305666	1.8
72	3151.318600	0.608848	0.000431	66.192137	1.9
73	3140.574699	0.601848	0.000431	83.342922	2.0
74	3171.092942	0.596128	0.000431	67.969906	1.9
75	3247.817101	0.592743	0.000431	121.694576	1.9
76	2990.108542	0.581810	0.000431	161.900706	2.0
77	3107.917712	1.439371	0.000415	78.817431	1.9
78	3077.545881	1.825936	0.000408	63.313711	1.8
79	3179.731584	1.824200	0.000408	71.886809	1.8
80	2981.823984	1.823442	0.000408	69.139945	1.8
81	3155.717787	1.816231	0.000408	93.891146	1.8
82	3241.073004	1.812786	0.000408	131.577382	1.8
83	3129.920893	2.208718	0.000401	78.588810	1.8
84	3159.735326	2.197057	0.000401	132.938361	1.8
85	3135.068167	2.356818	0.000399	67.466241	1.8
86	3167.060526	2.357856	0.000399	92.213169	1.8
87	3174.798904	2.349754	0.000399	122.057080	1.8
88	3148.905613	2.339334	0.000399	56.119049	1.8
89	3101.679435	2.330953	0.000399	104.859518	1.8
90	3106.368680	2.330786	0.000399	91.646897	1.8
91	3090.046511	2.326323	0.000399	63.251872	1.8
92	3151.222256	2.327610	0.000399	69.691831	1.8
93	3180.457044	2.317071	0.000399	112.875628	1.8
94	2994.736139	2.306614	0.000399	75.273227	1.8
95	3062.239084	2.296413	0.000400	103.442451	1.8
96	3081.308723	2.285365	0.000400	69.989464	1.8
97	3124.486756	2.274875	0.000400	81.112643	1.8
98	2985.643990	2.272481	0.000400	200.694133	1.8
99	3156.393025	2.260780	0.000400	89.850302	1.9
100	3117.588966	2.741366	0.000392	85.234567	1.8
101	3160.370519	2.734503	0.000392	67.803795	1.9
102	3121.676177	2.725926	0.000392	63.750565	2.3
103	3215.089437	2.718469	0.000392	67.091600	1.9
104	3149.762668	2.708177	0.000393	95.521002	1.8
105	3135.402794	2.701853	0.000393	140.437058	2.1
106	3126.847139	2.710967	0.000393	100.953451	3.9
107	3109.422487	2.829739	0.000391	70.462351	1.9
108	2942.341223	2.822702	0.000391	66.964871	1.9
109	3055.731455	2.817900	0.000391	123.144544	2.0
110	3172.291166	2.806378	0.000391	76.909955	2.0
111	3203.877180	2.802435	0.000391	101.579885	2.0
112	3161.881199	2.820551	0.000391	138.106172	2.1
113	3051.034884	2.851124	0.000390	90.226353	2.0
114	3139.774837	3.153635	0.000385	97.161003	2.0
115	3079.828508	3.182166	0.000385	46.077803	1.9
116	3192.246104	3.177132	0.000385	64.941831	2.2
117	3123.707759	3.172630	0.000385	90.651237	2.2
118	3095.385790	3.177254	0.000385	91.065848	2.1
119	3100.418965	3.211186	0.000384	70.970703	1.9
120	3056.070056	3.210732	0.000384	85.170517	1.8
121	3113.174269	3.206741	0.000385	79.205706	1.8
122	3166.748830	3.208235	0.000385	87.801838	1.7
123	3031.794390	3.197856	0.000385	73.174204	1.8
124	3112.175119	3.187591	0.000385	101.741678	4.2
125	3143.470872	3.181042	0.000385	93.785461	1.7
126	3181.274753	3.169748	0.000385	123.988682	1.9
127	3005.759384	3.524749	0.000380	45.951319	1.7
128	3057.064833	3.515086	0.000380	63.751185	1.8
129	2973.873658	3.509019	0.000380	47.558254	2.4
130	3063.859436	3.504364	0.000380	73.315364	4.2
131	2960.885002	3.495777	0.000380	74.524756	4.0
132	3102.696234	3.512106	0.000380	69.944166	2.3
133	3102.818339	3.503247	0.000380	156.939888	3.9
134	3055.226763	3.691603	0.000377	51.214858	4.1
135	3072.950329	3.709846	0.000377	48.787279	4.1
136	3185.395145	3.705016	0.000377	150.488598	3.9
137	2989.516257	3.699809	0.000377	55.124089	3.2
138	3054.868838	3.729092	0.000376	77.260255	3.3
139	3102.298860	3.718938	0.000377	102.332985	4.4
140	3060.725448	3.710752	0.000377	54.089065	4.3
141	3151.469460	3.701404	0.000377	99.599161	4.2
142	3028.064166	3.694013	0.000377	75.380230	4.2
143	3055.992479	3.686588	0.000377	90.977436	4.1
144	2928.175160	3.677285	0.000377	81.651772	3.6
145	3072.172694	3.759858	0.000376	55.758339	3.1
146	2978.849483	3.750231	0.000376	65.847941	3.0
147	3056.365407	3.744634	0.000376	50.111843	2.9
148	3093.367581	3.736721	0.000376	47.743752	2.6
149	3044.968995	3.729414	0.000376	53.544111	2.6
150	3170.725940	3.725460	0.000376	79.241696	2.5
151	2971.001752	3.721049	0.000377	102.080402	2.4
152	3077.393073	3.711796	0.000377	43.060125	2.2
153	3055.090827	3.704999	0.000377	70.216950	2.2
154	3112.696748	3.697017	0.000377	131.252744	2.2
155	3024.185620	3.714433	0.000377	80.335843	2.3
156	2982.416012	3.854718	0.000375	75.738800	2.3
157	3056.344252	3.907878	0.000374	86.558618	2.3
158	3090.851368	3.898004	0.000374	83.195648	2.3
159	3108.032888	3.893578	0.000374	47.039042	2.3
160	2988.254759	3.889727	0.000374	56.831264	1.9
161	3106.466480	3.885232	0.000374	57.092666	1.9
162	3155.043955	3.884276	0.000374	60.288186	1.9
163	2949.942400	3.876380	0.000374	73.280635	1.9
164	3114.199606	3.874177	0.000374	83.597152	1.9
165	3056.439616	3.876855	0.000374	81.347052	1.9
166	3049.818052	3.899007	0.000374	95.820085	1.9
167	2999.613427	3.904918	0.000374	84.533725	1.9
168	3094.884673	3.893651	0.000374	55.932725	1.8
169	3066.780125	3.907758	0.000374	56.451649	1.9
170	3004.251432	3.901250	0.000374	118.669472	1.9
171	3067.535523	3.892931	0.000374	107.613980	2.0
172	2975.090089	4.051607	0.000372	72.459749	2.1
173	3104.315203	4.040392	0.000372	143.511610	2.0
174	3075.268893	4.031858	0.000372	105.147759	2.0
175	3035.713458	4.503595	0.000365	60.313993	2.0
176	3036.366746	4.506021	0.000365	65.055867	1.9
177	3114.279315	4.504508	0.000365	90.751629	2.1
178	3140.412520	4.512169	0.000365	127.920542	4.3
179	3062.742595	4.508393	0.000365	103.350427	4.2
180	3066.273071	4.518682	0.000365	88.383116	4.2
181	3117.443232	4.699638	0.000362	69.466728	4.4
182	3086.956726	4.706254	0.000362	78.247814	4.4
183	3029.288786	4.739907	0.000362	91.724349	4.1
184	3081.682152	4.728806	0.000362	87.711471	4.1
185	3040.437397	4.739741	0.000362	61.568444	4.2
186	3131.274051	4.729002	0.000362	89.648655	3.3
187	2924.492735	4.718197	0.000362	104.698302	3.2
188	3040.525357	4.952424	0.000359	75.912804	3.7
189	3128.757691	4.948454	0.000359	78.426231	3.1
190	3043.196517	4.938149	0.000359	81.842845	2.5
191	2989.107991	4.959369	0.000359	55.667646	2.4
192	3142.978159	4.955513	0.000359	58.885879	2.4
193	3144.028963	4.946904	0.000359	47.644671	2.4
194	3065.314830	4.944351	0.000359	42.047897	2.3
195	3003.645959	4.938059	0.000359	104.341375	2.3
196	3042.533351	4.935675	0.000359	68.215962	2.3
197	2961.944501	4.967709	0.000358	127.614639	2.3
198	3003.538452	4.989081	0.000358	105.447882	3.7
199	3174.600654	5.614763	0.000350	70.026252	2.1
200	2970.605767	5.604641	0.000350	68.533738	2.1
201	2953.441415	5.599555	0.000350	75.282384	2.2
202	3070.441434	5.593074	0.000350	84.683680	3.2
203	3011.632779	5.607483	0.000350	104.715288	2.5
204	2924.120653	5.597889	0.000350	67.262399	2.4
205	3098.047417	5.664216	0.000349	38.203778	2.3
206	3040.129674	5.660216	0.000349	68.620726	1.9
207	3060.680232	5.656206	0.000349	55.104850	2.0
208	3057.257858	5.660388	0.000349	104.265262	2.0
209	3196.389281	5.690891	0.000349	71.838021	1.9
210	3010.336176	5.681870	0.000349	40.626175	1.9
211	2961.281848	5.675393	0.000349	61.178226	1.9
212	3029.697053	5.673696	0.000349	67.608823	2.0
213	3014.061981	5.670302	0.000349	50.940984	2.0
214	3049.641621	5.673810	0.000349	163.063976	1.9
215	2964.661007	5.685659	0.000349	74.518749	1.9
216	2954.498731	5.676934	0.000349	46.940934	1.8
217	3001.300125	5.669871	0.000349	84.709576	1.8
218	2973.147410	5.660589	0.000349	65.453110	1.8
219	3078.915587	5.653187	0.000349	59.621753	1.9
220	2960.248167	5.666438	0.000349	85.310687	1.9
221	3115.623991	5.657578	0.000349	72.019688	2.0
222	3022.098869	5.730848	0.000348	86.444573	2.0
223	3067.324443	5.720548	0.000348	105.956044	1.9
224	3096.702469	5.720535	0.000348	90.045965	2.0
225	3094.246429	5.719653	0.000348	62.515920	1.9
226	3135.262287	5.713736	0.000348	52.148566	1.9
227	3074.010055	5.704948	0.000349	48.745533	1.8
228	3019.853218	5.699586	0.000349	120.279751	1.8
229	3088.342580	5.690323	0.000349	63.613121	1.8
230	3072.202803	5.685007	0.000349	80.056573	1.8
231	3092.720017	5.674334	0.000349	102.911182	1.8
232	2977.214910	5.837026	0.000347	102.496459	1.9
233	3009.480644	5.930349	0.000346	75.293901	1.8
234	3098.264239	5.919180	0.000346	105.565797	1.8
235	3060.847584	6.074168	0.000344	50.271095	1.8
236	3125.906708	6.069336	0.000344	48.091742	1.8
237	2873.228968	6.070313	0.000344	136.639956	1.8
238	3014.065297	6.060641	0.000344	73.695767	1.9
239	3038.912309	6.436914	0.000339	61.541140	1.8
240	3021.153467	6.426325	0.000339	77.057124	1.9
241	3081.608218	6.426135	0.000339	71.816647	1.9
242	3064.212394	6.470380	0.000339	53.080761	1.9
243	3072.231422	6.474852	0.000339	94.728988	1.8
244	3005.288485	6.468357	0.000339	61.558520	1.9
245	3002.131527	6.458880	0.000339	52.147557	1.8
246	2989.669513	6.456238	0.000339	39.721499	1.8
247	2993.672416	6.452432	0.000339	55.504843	1.8
248	3097.505931	6.445637	0.000339	103.908155	1.8
249	3000.688497	6.466843	0.000339	58.705190	1.8
250	3130.274733	6.527146	0.000338	60.257197	1.8
251	2962.039957	6.519167	0.000338	78.995178	1.8
252	2998.993105	6.518432	0.000338	89.896285	1.7
253	3017.314834	6.507622	0.000338	115.119378	1.8
254	3128.416520	6.496125	0.000339	104.206919	1.8
255	2964.632326	7.077091	0.000332	84.073030	1.8
256	2921.717082	7.065587	0.000332	84.605612	1.8
257	3041.113303	7.137015	0.000331	114.712849	1.8
258	3003.877962	7.152494	0.000331	41.091489	1.8
259	3013.426964	7.144739	0.000331	65.462544	1.8
260	3150.961565	7.137672	0.000331	148.794872	1.7
261	3177.895997	7.328814	0.000329	82.245616	1.8
262	3028.072338	7.474556	0.000327	111.905849	1.8
263	2988.490079	7.534178	0.000326	48.933252	1.8
264	3045.539645	7.527410	0.000326	71.810076	1.8
265	3015.555708	7.520141	0.000326	39.490506	1.8
266	3013.645585	7.512786	0.000326	51.290845	1.8
267	3013.297905	7.506633	0.000327	43.268758	1.8
268	3158.408343	7.504012	0.000327	85.224406	1.8
269	3122.171198	7.502781	0.000327	104.259046	1.8
270	3042.972810	7.608341	0.000325	41.347021	1.8
271	3011.511222	7.601355	0.000325	51.336299	1.9
272	3009.090127	7.603310	0.000325	34.757212	1.9
273	2937.327618	7.599701	0.000325	67.227328	4.9
274	3021.764893	7.595694	0.000326	69.906759	4.1
275	2967.317481	7.587370	0.000326	83.420048	4.1
276	3031.625708	7.595951	0.000326	76.423535	3.8
277	3079.205272	7.591374	0.000326	47.682355	3.0
278	3033.927170	7.605865	0.000325	53.679073	2.9
279	3096.215972	7.598818	0.000325	63.327316	2.9
280	2947.099822	7.589952	0.000326	138.010831	3.2
281	3037.786960	7.626647	0.000325	73.100921	2.6
282	3011.508642	7.615015	0.000325	93.856765	2.6
283	3067.188325	7.718680	0.000324	35.848831	2.6
284	2986.122261	7.715878	0.000324	122.247350	2.6
285	3032.859428	7.719283	0.000324	76.948069	2.7
286	3124.826646	7.707781	0.000324	46.429734	2.6
287	3040.596673	7.721543	0.000324	44.426619	2.3
288	3009.786097	7.721643	0.000324	63.372472	2.2
289	2904.919699	7.728429	0.000324	78.277635	3.4
290	3101.385661	7.760385	0.000324	119.519031	4.3
291	3090.267861	7.996411	0.000321	100.124396	4.4
292	3003.322274	8.078263	0.000320	62.948476	4.4
293	2987.148702	8.075903	0.000320	101.421193	3.5
294	3067.850400	8.089560	0.000320	67.518855	2.1
295	3104.720901	8.151382	0.000319	56.572008	2.1
296	3016.011821	8.148244	0.000319	97.381948	2.1
297	3036.947231	8.143920	0.000319	48.713642	2.2
298	2940.297341	8.137729	0.000319	118.357754	2.2
299	2962.442085	8.185652	0.000319	48.612823	2.2
300	3009.008515	8.184155	0.000319	94.700560	2.2
301	2971.345390	8.177864	0.000319	87.695774	2.2
302	3031.995820	8.212667	0.000319	80.975443	2.0
303	3084.500552	8.269811	0.000318	83.010981	2.0
304	3150.779810	8.329693	0.000317	87.430969	2.0
305	2935.816152	8.390650	0.000317	81.221367	2.0
306	3018.749006	8.521360	0.000315	68.995785	2.7
307	3095.828852	8.523296	0.000315	52.518874	2.0
308	3010.951383	8.527682	0.000315	41.712601	7.1
309	2989.414325	8.526605	0.000315	34.951246	4.4
310	3060.946539	8.523923	0.000315	60.740434	4.0
311	3034.787931	8.520089	0.000315	33.361204	4.0
312	3009.998208	8.518617	0.000315	43.750110	4.0
313	3107.643441	8.515435	0.000315	80.536408	3.8
314	3092.391206	8.522162	0.000315	68.212823	2.9
315	2955.311272	8.537659	0.000315	65.822889	2.9
316	3029.316300	8.530139	0.000315	44.814789	3.0
317	2998.295405	8.534351	0.000315	83.389728	2.5
318	2984.370125	8.546397	0.000315	52.420078	2.4
319	2962.469896	8.538512	0.000315	83.498244	2.6
320	2982.139000	8.538755	0.000315	66.590524	2.5
321	2996.459675	8.549806	0.000315	58.351944	2.2
322	2922.669902	8.571402	0.000315	109.895613	2.3
323	3095.419234	8.560316	0.000315	93.983169	2.3
324	2950.913600	8.621360	0.000314	76.766345	2.2
325	2961.732635	8.767401	0.000313	55.879851	2.5
326	2934.210835	8.759872	0.000313	52.368522	2.6
327	2985.313928	8.776446	0.000313	124.885092	4.4
328	2996.153809	8.787775	0.000312	83.855414	4.1
329	2966.162193	8.911380	0.000311	51.269569	4.0
330	3055.810237	8.926093	0.000311	78.069615	4.1
331	3034.634949	8.932503	0.000311	78.308574	3.0
332	2995.166221	8.931947	0.000311	74.853722	3.0
333	2920.044061	8.923857	0.000311	59.003352	3.1
334	3021.801763	8.919771	0.000311	87.657954	2.7
335	3049.797059	8.945808	0.000311	97.849123	2.6
336	2986.159794	8.938042	0.000311	103.624990	2.6
337	3071.414064	8.926394	0.000311	93.150634	2.6
338	3040.652651	9.106870	0.000309	70.181087	2.3
339	3098.308472	9.097321	0.000309	42.295284	2.3
340	3055.236814	9.098236	0.000309	57.497936	2.3
341	2966.992363	9.091114	0.000309	76.990730	2.4
342	2972.063724	9.083578	0.000309	28.919800	2.2
343	3017.735719	9.080984	0.000309	45.509927	2.1
344	3083.698190	9.080036	0.000309	30.450026	2.0
345	2943.379216	9.077007	0.000309	79.006826	2.0
346	3041.926474	9.072929	0.000310	32.479159	2.1
347	3006.779636	9.082143	0.000309	61.781530	2.0
348	3078.884069	9.080537	0.000309	94.272637	2.0
349	3025.550536	9.081597	0.000309	41.781976	2.2
350	2928.412945	9.081752	0.000309	38.986756	2.6
351	2914.441053	9.083320	0.000309	31.539005	2.0
352	3033.479903	9.079155	0.000309	115.913999	2.3
353	2991.153414	9.087346	0.000309	50.591252	3.7
354	2936.706978	9.102249	0.000309	130.204857	2.2
355	2902.290957	9.153596	0.000309	63.534996	2.3
356	2942.959763	9.147093	0.000309	82.138385	2.2
357	2986.267125	9.198319	0.000308	60.442912	2.3
358	2979.257784	9.187736	0.000308	62.067340	4.6
359	2898.835954	9.208789	0.000308	38.240671	4.4
360	2958.325895	9.206650	0.000308	57.569664	4.3
361	2985.262471	9.202833	0.000308	107.787226	3.6
362	2944.230032	9.333754	0.000307	61.625481	3.7
363	2992.481601	9.329214	0.000307	74.632784	4.0
364	2934.019112	9.349399	0.000307	60.739617	4.2
365	2987.841648	9.379533	0.000306	78.256950	4.1
366	3032.294936	9.390290	0.000306	43.001396	3.3
367	3146.633127	9.401912	0.000306	50.113120	2.9
368	3103.385923	9.405212	0.000306	51.702785	3.0
369	2885.248041	9.405514	0.000306	93.025921	2.8
370	2922.538355	9.399092	0.000306	79.174741	2.3
371	3071.233398	9.387756	0.000306	85.586401	2.3
372	2978.363587	9.392282	0.000306	32.824548	2.2
373	2905.696944	9.399285	0.000306	54.603717	2.3
374	2954.631088	9.392674	0.000306	98.200059	1.9
375	2988.461737	9.398843	0.000306	76.553365	1.8
376	3072.383105	9.388752	0.000306	102.061280	2.2
377	3012.902052	9.388187	0.000306	70.039731	1.9
378	2975.365165	9.572670	0.000304	68.551178	1.9
379	3012.046981	9.564900	0.000305	50.070981	1.8
380	3030.592369	9.567686	0.000305	111.181460	1.8
381	2993.389912	9.559523	0.000305	76.152926	1.8
382	2871.662564	9.560274	0.000305	52.090336	1.8
383	2915.910704	9.559132	0.000305	59.729657	1.8
384	2861.141194	9.564358	0.000305	70.998715	1.8
385	2955.268649	9.559438	0.000305	118.488827	2.0
386	3020.373791	9.555384	0.000305	46.319302	1.9
387	2950.687358	9.545435	0.000305	53.786810	1.9
388	3198.490991	9.541362	0.000305	34.701689	1.9
389	2894.335195	9.534877	0.000305	46.588989	1.9
390	2914.688059	9.531031	0.000305	29.178040	1.9
391	2935.031927	9.530958	0.000305	32.637087	1.8
392	2933.317145	9.527875	0.000305	37.689581	1.8
393	3144.962573	9.526831	0.000305	38.777169	1.8
394	3025.820157	9.521207	0.000305	41.002737	1.8
395	3048.183320	9.515876	0.000305	64.182637	1.8
396	2970.750538	9.518545	0.000305	49.106022	1.8
397	2933.407190	9.513279	0.000305	55.438086	1.7
398	2996.418479	9.513325	0.000305	108.525766	1.8
399	3002.630229	9.508437	0.000305	90.967819	1.8
400	2999.223889	9.862926	0.000302	64.237989	1.8
401	3124.586539	9.955262	0.000301	57.371539	1.8
402	2892.518060	9.947190	0.000301	68.729005	1.8
403	3051.878574	9.971820	0.000301	47.999655	1.8
404	2894.197941	9.986483	0.000300	35.579507	1.8
405	2942.748185	9.988498	0.000300	51.811779	1.9
406	3044.814571	9.984073	0.000300	110.634031	1.8
407	2898.001016	10.072603	0.000300	27.618069	1.8
408	3034.497255	10.078428	0.000300	85.472625	1.8
409	3078.962737	10.074950	0.000300	46.359892	1.8
410	2979.434609	10.064969	0.000300	39.628073	1.8
411	2998.614530	10.061795	0.000300	95.922114	1.8
412	2969.025571	10.056659	0.000300	85.410984	1.8
413	3005.103745	10.353842	0.000297	51.792370	1.8
414	2972.725472	10.393143	0.000297	99.360258	1.8
