1:ItNr	2:Metric	3a:Time	3b:StepSize	4:||Gradient||	Time[ms]
0	560796.691727	0.000000	0.000021	96480.020074	199.9
1	385009.466160	0.000000	0.000021	88019.207741	4.1
2	231811.532142	0.000000	0.000021	69829.723753	3.8
3	133125.020193	0.000000	0.000021	49308.884194	3.7
4	98721.777858	0.000000	0.000021	39928.134731	3.7
5	66957.976719	0.000000	0.000021	28805.681160	3.7
6	51501.801685	0.000000	0.000021	21923.666273	3.7
7	43869.509576	0.000000	0.000021	18641.475579	3.8
8	37303.224675	0.000000	0.000021	15025.813487	3.7
9	32983.792219	0.000000	0.000021	12203.900900	3.6
10	29544.940997	0.000000	0.000021	10343.027353	3.7
11	27890.404157	0.000000	0.000021	9475.167560	3.6
12	26071.524964	0.000000	0.000021	7674.085065	4.7
13	24882.875119	0.000000	0.000021	7181.455440	5.5
14	24035.400595	0.000000	0.000021	6806.443381	5.8
15	23075.745358	0.000000	0.000021	6169.962611	4.7
16	21609.463939	0.000000	0.000021	5247.969825	4.4
17	21618.334632	0.000000	0.000021	5224.654684	6.5
18	21053.653232	0.000000	0.000021	4748.022018	5.2
19	20912.723159	0.000000	0.000021	4590.618224	5.3
20	19897.075939	0.000000	0.000021	3994.383471	5.3
21	19269.271397	0.000000	0.000021	3898.339954	4.2
22	19816.068299	0.000000	0.000021	3833.182336	4.0
23	20109.230421	0.000000	0.000021	3641.918318	4.0
24	19067.896801	0.000000	0.000021	3272.470405	3.8
25	18276.872603	0.000000	0.000021	2835.258549	3.6
26	18671.308928	0.000000	0.000021	3082.705923	3.4
27	18547.782012	0.000000	0.000021	2929.811544	3.3
28	18517.276755	0.000000	0.000021	2682.929619	3.5
29	18492.365534	0.000000	0.000021	2506.065604	3.1
30	18284.670338	0.000000	0.000021	2423.507728	3.2
31	18229.312063	0.000000	0.000021	2089.970547	3.2
32	18038.277030	0.000000	0.000021	2237.684478	3.3
33	17813.603605	0.000000	0.000021	1885.684431	3.3
34	18181.585645	0.000000	0.000021	1966.648086	3.3
35	17677.312885	0.000000	0.000021	1535.800794	3.3
36	17121.976932	0.000000	0.000021	1824.149305	3.2
37	17038.808547	0.000000	0.000021	1807.782485	3.3
38	17490.928266	0.000000	0.000021	1548.823077	3.2
39	17175.959182	0.000000	0.000021	1300.818123	3.1
40	17146.924658	0.000000	0.000021	1397.555799	3.1
41	16860.380803	0.000000	0.000021	1272.456680	3.1
42	17563.318116	0.000000	0.000021	1457.767900	3.3
43	17517.033417	0.000000	0.000021	938.162161	3.2
44	16799.191750	0.000000	0.000021	1004.348787	3.2
45	17454.031859	0.000000	0.000021	953.216269	3.2
46	17173.401520	0.000000	0.000021	1155.647179	3.2
47	17022.365728	0.000000	0.000021	997.063695	3.2
48	16872.839531	0.000000	0.000021	926.791891	3.3
49	17605.375009	0.000000	0.000021	829.958562	3.3
50	18073.382441	0.000000	0.000021	798.756927	3.3
51	17353.658157	0.000000	0.000021	942.209946	3.6
52	17247.737643	0.000000	0.000021	759.760087	3.6
53	16583.148244	0.000000	0.000021	667.214999	3.9
54	17383.898410	0.000000	0.000021	612.036841	4.0
55	17156.027020	0.000000	0.000021	734.944494	3.9
56	17439.331386	0.000000	0.000021	699.659930	4.0
57	16950.468030	0.000000	0.000021	808.316872	4.0
58	16742.390970	0.000000	0.000021	904.944889	4.0
59	17022.775257	0.000000	0.000021	1211.801676	3.8
60	16857.279282	0.009578	0.000021	654.128307	4.0
61	17301.423524	0.000000	0.000021	553.777575	5.8
62	17127.920524	0.000000	0.000021	615.593020	5.7
63	16782.173499	0.000000	0.000021	588.031007	5.4
64	16841.429678	0.000000	0.000021	623.861330	3.6
65	16868.662818	0.000000	0.000021	716.806575	5.6
66	16948.512184	0.000000	0.000021	457.563379	2.6
67	17368.130780	0.000000	0.000021	560.396170	2.7
68	17320.175827	0.000000	0.000021	514.411392	3.1
69	16745.334240	0.000000	0.000021	761.979791	3.8
70	17388.719507	0.000000	0.000021	609.151999	3.5
71	17088.783121	0.000000	0.000021	584.284616	3.2
72	17143.814514	0.000000	0.000021	481.534770	3.2
73	17085.435115	0.000000	0.000021	648.448383	3.1
74	17315.796200	0.000000	0.000021	451.127388	4.2
75	17150.478708	0.000000	0.000021	501.803219	3.1
76	17385.614570	0.000000	0.000021	496.154887	3.1
77	16895.686493	0.000000	0.000021	546.900156	3.1
78	16950.657842	0.000000	0.000021	673.258475	3.3
79	16579.552102	0.000000	0.000021	422.409572	3.2
80	16930.713980	0.000000	0.000021	694.035545	3.2
81	17219.097823	0.000000	0.000021	497.162337	3.2
82	16553.695163	0.000000	0.000021	644.911917	3.3
83	16422.630788	0.000000	0.000021	441.812113	3.3
84	16590.308678	0.000000	0.000021	440.725346	5.3
85	16851.687502	0.000000	0.000021	475.407136	5.1
86	17000.036387	0.000000	0.000021	500.885264	5.1
87	16579.741365	0.000000	0.000021	581.018002	4.2
88	16645.125332	0.000000	0.000021	510.594631	4.1
89	16848.709026	0.000000	0.000021	583.837502	4.0
90	16901.834845	0.000000	0.000021	497.189376	3.7
91	17045.567988	0.000000	0.000021	583.395661	5.1
92	17205.364971	0.000000	0.000021	516.275338	5.2
93	16793.822357	0.000000	0.000021	580.301568	5.2
94	16948.981997	0.000000	0.000021	489.041343	4.1
95	16862.537886	0.000000	0.000021	479.426776	4.1
96	17332.969079	0.000000	0.000021	514.731626	4.0
97	16990.903848	0.000000	0.000021	441.446806	3.8
98	16196.956000	0.000000	0.000021	472.554328	3.8
99	16924.218775	0.000000	0.000021	573.968402	3.5
100	16690.681872	0.000000	0.000021	441.565324	3.5
101	17083.555049	0.000000	0.000021	490.241306	3.4
102	17111.790228	0.000000	0.000021	546.634149	3.2
103	16954.473507	0.000000	0.000021	1037.561675	3.2
104	16855.849262	0.003383	0.000021	458.514807	3.4
105	16826.154732	0.006737	0.000021	499.938323	3.6
106	16964.435693	0.000000	0.000021	681.608721	3.7
107	16470.359602	0.000000	0.000021	495.096283	3.5
108	16891.879663	0.000000	0.000021	462.433915	3.6
109	17502.894251	0.000000	0.000021	476.950222	3.5
110	17072.217965	0.000000	0.000021	626.450811	3.3
111	17014.941485	0.000000	0.000021	516.990314	3.3
112	17239.194526	0.000000	0.000021	486.322753	3.6
113	17140.766654	0.000000	0.000021	623.377936	3.2
114	16505.961755	0.000000	0.000021	465.466711	3.2
115	16923.019687	0.000000	0.000021	592.944874	3.3
116	17479.611979	0.000000	0.000021	464.803475	3.3
117	16551.908981	0.000000	0.000021	453.273203	3.2
118	17018.746494	0.000000	0.000021	565.026134	3.2
119	17193.609947	0.000000	0.000021	491.132639	4.3
120	16525.546749	0.000000	0.000021	659.241263	5.5
121	16467.633359	0.000000	0.000021	576.142947	5.7
122	16791.428732	0.000000	0.000021	590.172453	5.3
123	16203.174549	0.000000	0.000021	490.204576	4.7
124	17020.848665	0.000000	0.000021	557.693555	4.8
125	16195.158430	0.000000	0.000021	931.770585	4.2
126	16544.294122	0.000000	0.000021	598.196981	4.1
127	17246.272062	0.092882	0.000021	464.979087	3.8
128	16562.745343	0.082970	0.000021	478.633649	3.4
129	16831.904299	0.073790	0.000021	503.184636	4.2
130	17038.242534	0.064017	0.000021	470.197830	3.6
131	16554.272692	0.055026	0.000021	452.642492	3.7
132	16100.432422	0.045579	0.000021	465.005523	3.7
133	16302.976220	0.035832	0.000021	445.123673	3.2
134	16078.756844	0.026102	0.000021	597.114454	4.7
135	16806.572347	0.016209	0.000021	508.530863	3.5
136	16923.682904	0.010910	0.000021	754.187479	4.1
137	16924.666505	0.009679	0.000021	557.432983	5.0
138	16401.850617	0.017930	0.000021	744.896725	4.6
139	16824.985506	0.007899	0.000021	465.833352	4.6
140	16729.677954	0.000000	0.000021	817.180145	5.1
141	17338.760866	0.000000	0.000021	667.996164	5.1
142	16535.552221	0.000000	0.000021	443.590718	4.9
143	16841.171455	0.000000	0.000021	617.580781	5.0
144	16619.795584	0.000000	0.000021	543.440100	4.7
145	16879.297275	0.000000	0.000021	608.131721	4.5
146	16268.412627	0.000000	0.000021	451.529765	4.1
147	16468.984032	0.000000	0.000021	466.765677	4.0
148	17041.947469	0.000000	0.000021	476.983801	4.0
149	16248.848032	0.000000	0.000021	466.137839	5.5
150	16419.221821	0.000000	0.000021	495.366913	4.0
151	16469.021756	0.000000	0.000021	483.072089	4.2
152	16626.152984	0.000000	0.000021	876.200413	4.1
153	16999.618025	0.000000	0.000021	593.448409	3.7
154	16739.114417	0.000000	0.000021	507.100660	3.3
155	17173.181066	0.000000	0.000021	830.045283	3.2
156	16769.844435	0.000000	0.000021	637.312848	3.3
157	16716.638569	0.000000	0.000021	503.439934	5.5
158	16504.912701	0.000000	0.000021	459.265170	5.2
159	16067.505371	0.000000	0.000021	460.672311	5.3
160	17301.978019	0.000000	0.000021	681.613352	4.5
161	16452.527407	0.000000	0.000021	457.174843	4.1
162	16497.872323	0.000000	0.000021	443.026514	4.1
163	16424.486064	0.000000	0.000021	501.182829	3.7
164	16572.759218	0.000000	0.000021	486.541512	3.9
165	17241.258920	0.000000	0.000021	665.097836	3.8
166	16613.320727	0.000000	0.000021	465.103665	3.4
167	16924.818647	0.000000	0.000021	459.849346	3.7
168	16757.771940	0.000000	0.000021	677.804519	5.4
169	16171.146679	0.000000	0.000021	450.782772	3.3
170	16665.343752	0.000000	0.000021	448.152783	3.5
171	16799.953411	0.000000	0.000021	478.748403	3.9
172	17089.326623	0.000000	0.000021	491.499843	4.0
173	16837.125779	0.000000	0.000021	542.944698	3.2
174	16419.255853	0.000000	0.000021	477.820601	3.1
175	16487.993278	0.000000	0.000021	530.186292	2.9
176	16832.002116	0.000000	0.000021	548.409470	3.4
177	16572.851904	0.000000	0.000021	521.026563	3.3
178	16534.097213	0.000000	0.000021	500.752701	3.6
179	16702.801745	0.000000	0.000021	443.868004	5.3
180	16415.781166	0.000000	0.000021	454.112066	5.2
181	16155.588376	0.000000	0.000021	411.232207	4.0
182	16853.269290	0.000000	0.000021	630.908156	4.0
183	16450.571140	0.000000	0.000021	586.614559	4.8
184	16356.386003	0.000000	0.000021	526.558632	5.3
185	16670.981514	0.000000	0.000021	525.191167	4.7
186	16525.074269	0.000000	0.000021	489.481839	4.0
187	16382.052440	0.000000	0.000021	568.288039	4.0
188	16858.623463	0.000000	0.000021	481.165167	3.5
189	16788.163239	0.000000	0.000021	717.209457	3.5
190	16581.400805	0.000000	0.000021	477.780779	3.5
191	16718.710339	0.000000	0.000021	463.527767	3.5
192	16531.233165	0.000000	0.000021	469.438962	3.6
193	16667.972379	0.000000	0.000021	586.746311	3.7
194	16683.489436	0.000000	0.000021	524.623139	3.7
195	16357.386695	0.000000	0.000021	547.331444	3.9
196	16718.904702	0.000000	0.000021	442.896363	3.2
197	16214.344280	0.000000	0.000021	513.179589	3.1
198	16276.614696	0.000000	0.000021	654.777460	3.1
199	16839.896731	0.000000	0.000021	442.474103	3.1
200	16661.056593	0.000000	0.000021	524.607064	3.0
201	16524.657806	0.000000	0.000021	471.994315	3.0
202	16684.892336	0.000000	0.000021	474.360708	3.0
203	16792.657638	0.000000	0.000021	451.142727	3.3
204	16477.776856	0.000000	0.000021	520.566858	3.3
205	16916.335744	0.000000	0.000021	469.727427	3.2
206	16488.050646	0.000000	0.000021	447.248191	3.3
207	16366.362618	0.000000	0.000021	461.176473	3.4
208	16210.962854	0.000000	0.000021	471.008467	3.3
209	16934.455024	0.000000	0.000021	477.646004	3.0
210	16672.676211	0.000000	0.000021	465.648767	5.3
211	16800.360299	0.000000	0.000021	470.972091	5.4
212	16643.962247	0.000000	0.000021	552.198347	5.6
213	15762.558307	0.000000	0.000021	510.220580	5.9
214	16043.920076	0.000000	0.000021	478.983922	5.5
215	15726.939486	0.000000	0.000021	545.650291	4.7
216	16230.374410	0.000000	0.000021	423.939626	4.4
217	16492.275478	0.000000	0.000021	440.911916	5.6
218	16450.282971	0.000000	0.000021	444.921324	4.9
219	16065.670057	0.000000	0.000021	451.670740	5.5
220	16290.024926	0.000000	0.000021	475.860003	5.7
221	16078.975366	0.000000	0.000021	568.743126	5.3
222	16683.593133	0.000000	0.000021	491.614067	5.3
223	16778.237258	0.000000	0.000021	441.481136	5.7
224	16688.626818	0.000000	0.000021	434.967980	4.3
225	16801.342224	0.000000	0.000021	590.337203	4.3
226	16571.804961	0.000000	0.000021	539.032827	4.3
227	16391.644245	0.000000	0.000021	592.442164	5.3
228	16575.551964	0.000000	0.000021	482.004717	4.1
229	15902.552783	0.000000	0.000021	604.104706	4.4
230	16358.497380	0.000000	0.000021	561.613203	4.3
231	16339.185745	0.000000	0.000021	706.716410	3.5
232	15868.691948	0.000000	0.000021	608.838787	3.5
233	16659.407611	0.034259	0.000021	680.172646	3.5
234	16796.424184	0.050866	0.000021	493.563243	3.4
235	16102.215983	0.040821	0.000021	490.972784	3.3
236	16402.809000	0.030940	0.000021	539.584502	3.5
237	16817.293943	0.023176	0.000021	695.046557	5.5
238	16417.825461	0.013117	0.000021	746.645517	5.2
239	16608.093049	0.095643	0.000021	485.567788	4.1
240	16186.562444	0.088468	0.000021	630.026574	4.1
241	15994.099216	0.078462	0.000021	856.272898	3.9
242	16543.540347	0.068349	0.000021	842.539877	4.0
243	15850.997684	0.649177	0.000020	475.264441	4.0
244	15946.457049	0.641124	0.000020	446.247383	3.8
245	16222.592711	0.632315	0.000020	474.399386	3.7
246	16567.981433	0.622675	0.000020	447.338854	3.4
247	16345.094213	0.613127	0.000020	444.714501	3.4
248	16224.111111	0.603536	0.000020	483.393781	3.4
249	16717.866208	0.593779	0.000020	519.110701	3.4
250	16157.774167	0.584759	0.000020	603.246556	3.4
251	16362.824926	0.574932	0.000020	540.270131	3.4
252	16832.307193	0.571216	0.000020	525.611448	3.7
253	16404.027988	0.561339	0.000020	498.518472	3.6
254	16595.979137	0.552626	0.000020	450.166887	3.5
255	16281.626541	0.542880	0.000020	481.819774	3.0
256	15969.511371	0.533481	0.000020	471.030606	3.1
257	15969.700117	0.524341	0.000020	465.847836	3.1
258	15987.084274	0.514571	0.000020	672.770881	3.0
259	16517.027105	0.508303	0.000020	456.942065	3.2
260	16329.878268	0.498363	0.000020	498.324861	5.1
261	16005.480662	0.489329	0.000020	633.980063	5.3
262	16022.418198	0.482872	0.000020	623.298755	5.3
263	16044.627998	0.483208	0.000020	621.803981	5.6
264	16514.563756	0.473180	0.000020	521.313861	5.3
265	16463.672480	0.466389	0.000020	517.111678	5.8
266	16398.895121	0.456605	0.000020	477.362978	5.9
267	16127.786383	0.447006	0.000020	496.647046	5.3
268	16021.887036	0.437369	0.000020	475.790333	4.3
269	16592.805377	0.427901	0.000020	471.372997	5.4
270	16623.575293	0.418153	0.000020	539.563790	5.5
271	15875.064917	0.408886	0.000020	417.497858	5.7
272	16391.050767	0.399624	0.000020	472.638394	5.6
273	15954.892332	0.390453	0.000020	484.377584	5.6
274	15905.651344	0.381495	0.000020	526.275274	5.8
275	15990.194160	0.371669	0.000020	443.191711	5.8
276	16309.118695	0.362152	0.000020	489.609165	4.5
277	16014.684903	0.352534	0.000020	492.186199	4.8
278	16735.403453	0.343114	0.000020	529.831780	5.0
279	16184.995700	0.333629	0.000020	890.158758	4.2
280	16398.409818	0.337826	0.000020	515.271733	3.8
281	16514.412120	0.340434	0.000020	672.118849	3.9
282	16734.954633	0.330969	0.000020	574.574645	3.4
283	15956.097005	0.322153	0.000020	697.197712	3.5
284	16508.843487	0.314563	0.000020	527.165148	3.3
285	16799.515895	0.309320	0.000020	649.434361	3.3
286	16683.886111	0.299304	0.000020	634.561403	3.2
287	16094.899235	0.297554	0.000020	530.310481	3.3
288	16630.893533	0.290254	0.000020	522.885917	3.6
289	16550.633096	0.283258	0.000020	664.653683	3.6
290	16389.929553	0.276203	0.000020	541.460881	3.6
291	16031.590026	0.266259	0.000020	438.139740	3.6
292	16060.139324	0.257295	0.000020	496.792012	3.6
293	16456.500141	0.247884	0.000020	449.331987	4.5
294	16006.882925	0.238192	0.000020	430.664918	3.5
295	16585.677754	0.228878	0.000020	464.362569	3.5
296	16469.721067	0.219695	0.000021	477.099110	3.5
297	16034.134820	0.210120	0.000021	457.664351	3.6
298	15892.046415	0.200538	0.000021	520.215572	3.5
299	16409.929325	0.190843	0.000021	436.347211	3.7
300	15647.958716	0.181222	0.000021	447.833920	3.7
301	16143.782356	0.171705	0.000021	598.920424	3.8
302	15317.307269	0.162101	0.000021	445.277513	3.9
303	15807.025311	0.152345	0.000021	535.375027	3.8
304	16079.959418	0.143055	0.000021	743.201102	3.1
305	16574.558463	0.133058	0.000021	478.220753	3.1
306	15899.425985	0.123031	0.000021	533.493076	3.2
307	16207.582405	0.114254	0.000021	483.636618	3.0
308	16314.262839	0.104694	0.000021	580.572169	3.5
309	16006.444781	0.095311	0.000021	863.229004	3.7
310	16336.406043	0.123805	0.000021	552.165389	3.7
311	16821.220548	0.113712	0.000021	672.863993	3.9
312	16393.246336	0.111139	0.000021	492.981321	3.0
313	15842.329768	0.103711	0.000021	451.889873	2.6
314	16047.381711	0.095017	0.000021	509.751217	3.1
315	15898.099930	0.085510	0.000021	769.438571	2.6
316	16480.416227	0.076870	0.000021	482.602657	2.5
317	16140.356939	0.066885	0.000021	472.568475	2.7
318	16171.060312	0.057291	0.000021	471.417794	3.9
319	15829.294641	0.047693	0.000021	605.970608	5.2
320	16014.341139	0.038217	0.000021	750.158899	5.0
321	16384.400253	0.028119	0.000021	656.509058	2.6
322	16013.160539	0.051231	0.000021	482.901853	4.3
323	16186.424868	0.044125	0.000021	580.638399	4.4
324	15623.135934	0.034563	0.000021	512.147258	3.6
325	16169.571686	0.025408	0.000021	712.776562	3.7
326	15941.348149	0.025184	0.000021	422.972791	3.4
327	16349.013577	0.015596	0.000021	589.822905	3.4
328	16065.624449	0.005785	0.000021	547.924763	3.6
329	15704.600862	0.000000	0.000021	480.454279	3.4
330	15540.539511	0.000000	0.000021	438.166141	2.8
331	16010.761583	0.000000	0.000021	438.523235	2.8
332	16001.789037	0.000000	0.000021	527.940660	2.8
333	15526.640896	0.000000	0.000021	419.339149	2.9
334	16392.061120	0.000000	0.000021	687.103228	2.9
335	16397.335241	0.000000	0.000021	445.117116	2.9
336	16017.946731	0.000000	0.000021	749.467635	3.0
337	15988.092181	0.000000	0.000021	426.229850	3.1
338	16671.947251	0.000000	0.000021	580.748973	3.1
339	15811.839403	0.000000	0.000021	400.719790	3.1
340	16019.210545	0.000000	0.000021	513.785515	3.1
341	15969.226308	0.000000	0.000021	484.116000	3.2
342	15544.007426	0.000000	0.000021	467.928428	3.2
343	15930.961785	0.000000	0.000021	421.345795	3.2
344	16175.544725	0.000000	0.000021	480.633430	3.2
345	15895.160921	0.000000	0.000021	536.604630	3.2
346	16031.155853	0.000000	0.000021	450.633616	3.1
347	16413.863776	0.000000	0.000021	667.192163	3.1
348	16100.590761	0.000000	0.000021	520.318810	3.0
349	15880.736722	0.000000	0.000021	420.716743	3.1
350	16027.705164	0.000000	0.000021	429.455820	3.2
351	15883.235578	0.000000	0.000021	529.038438	3.2
352	16449.705908	0.000000	0.000021	545.361133	3.3
353	15933.586739	0.000000	0.000021	477.763328	3.1
354	16179.813329	0.000000	0.000021	440.546164	3.1
355	16210.983727	0.000000	0.000021	434.695160	3.2
356	16226.994946	0.000000	0.000021	445.970380	3.4
357	15869.577322	0.000000	0.000021	640.108816	3.4
358	15857.771388	0.000000	0.000021	473.608722	3.4
359	16116.131319	0.000000	0.000021	492.985677	3.3
360	15776.474165	0.000000	0.000021	423.300157	3.3
361	15958.167281	0.000000	0.000021	466.805618	3.5
362	15877.865844	0.000000	0.000021	481.941019	3.8
363	15611.886792	0.000000	0.000021	467.078904	5.5
364	15607.681003	0.000000	0.000021	499.059917	5.4
365	16163.863338	0.000000	0.000021	522.752680	5.3
366	16058.490372	0.000000	0.000021	527.803278	5.3
367	16040.894763	0.000000	0.000021	453.672259	5.5
368	16253.851905	0.000000	0.000021	645.043914	5.4
369	15874.820167	0.000000	0.000021	629.800338	5.1
370	16183.787833	0.008873	0.000021	702.287630	4.2
371	15773.665715	0.000000	0.000021	444.089452	4.2
372	16024.936543	0.000000	0.000021	564.868622	3.3
373	16092.922445	0.000000	0.000021	475.559362	3.3
374	16205.717736	0.000000	0.000021	448.240509	3.4
375	16093.259393	0.000000	0.000021	495.664341	3.2
376	16210.686792	0.000000	0.000021	509.224917	3.2
377	16051.049018	0.000000	0.000021	452.652494	3.1
378	16091.940956	0.000000	0.000021	590.713311	3.2
379	15777.167092	0.000000	0.000021	414.234230	3.1
380	15992.563558	0.000000	0.000021	415.969377	3.3
381	16053.893169	0.000000	0.000021	695.236919	4.3
382	15976.084575	0.000000	0.000021	459.898675	3.4
383	16152.437328	0.000000	0.000021	621.937405	3.2
384	15806.840127	0.000000	0.000021	508.516508	3.3
385	15993.117645	0.000000	0.000021	429.319921	3.7
386	16320.734530	0.000000	0.000021	556.365773	3.4
387	15784.823580	0.000000	0.000021	541.819171	3.7
388	15658.048169	0.000000	0.000021	520.675820	3.7
389	16000.080690	0.000000	0.000021	467.088219	3.7
390	15659.828242	0.000000	0.000021	552.475600	3.5
391	15657.874705	0.000000	0.000021	505.932586	3.8
392	15992.962544	0.000000	0.000021	485.512049	3.4
393	15959.277503	0.000000	0.000021	553.187241	3.4
394	16862.233565	0.000000	0.000021	620.277519	3.3
395	15887.944085	0.000000	0.000021	548.353979	3.2
396	15834.029757	0.000000	0.000021	433.401842	3.2
397	15385.802007	0.000000	0.000021	677.144841	3.4
398	15625.106311	0.000000	0.000021	449.642098	3.9
