1:ItNr	2:Metric	3a:Time	3b:StepSize	4:||Gradient||	Time[ms]
0	102764.951128	0.000000	0.000388	4883.658350	211.5
1	90664.101421	0.000000	0.000388	4315.490898	1.8
2	86663.474926	0.000000	0.000388	4055.557733	1.6
3	80833.797560	0.000000	0.000388	4101.145061	1.5
4	74863.190436	0.000000	0.000388	4009.987530	1.5
5	67704.989205	0.000000	0.000388	4760.003123	1.5
6	56206.665635	0.000000	0.000388	5359.130111	1.5
7	45512.179277	0.000000	0.000388	5932.648322	1.5
8	30162.345096	0.000000	0.000388	6056.437508	1.5
9	17382.549056	0.000000	0.000388	3868.217163	1.6
10	12923.711894	0.000000	0.000388	2151.347983	1.6
11	11808.336233	0.000000	0.000388	748.105858	1.5
12	11329.927195	0.000000	0.000388	416.596380	1.6
13	11214.152787	0.000000	0.000388	301.475257	1.5
14	11490.825455	0.000000	0.000388	442.652647	1.6
15	12044.170629	0.000000	0.000388	354.733488	2.7
16	11547.374943	0.000000	0.000388	291.874231	3.2
17	12245.225911	0.000000	0.000388	264.660591	2.7
18	11509.412784	0.000000	0.000388	265.104608	2.7
19	11472.678907	0.000000	0.000388	209.537309	3.0
20	11903.358563	0.000000	0.000388	230.007024	2.2
21	11469.742000	0.000000	0.000388	263.454628	2.2
22	12180.635346	0.000000	0.000388	197.977934	2.2
23	11472.776955	0.000000	0.000388	176.814802	2.1
24	12025.818627	0.000000	0.000388	297.331747	2.5
25	11710.756177	0.000000	0.000388	154.153831	2.2
26	11297.831588	0.000000	0.000388	249.229106	2.2
27	11090.264160	0.000000	0.000388	468.528633	2.2
28	11445.232372	0.994203	0.000370	464.064182	2.9
29	11079.772718	1.994203	0.000354	235.801880	4.5
30	12124.212559	2.994193	0.000339	409.968011	4.8
31	11379.090556	3.994103	0.000326	315.439292	4.7
32	11217.134702	4.994102	0.000313	259.132242	4.2
33	11304.907690	5.197529	0.000311	267.616624	3.6
34	12016.541314	5.283688	0.000310	408.870870	3.5
35	11694.389737	5.343493	0.000309	384.495151	3.1
36	11588.043923	6.343493	0.000298	202.107657	3.0
37	11674.752066	6.560097	0.000296	243.288917	3.0
38	11350.211461	6.546822	0.000296	351.154093	3.4
39	11362.195491	7.539773	0.000285	153.073570	4.3
40	10617.328325	7.526499	0.000286	266.469968	4.4
41	11334.113270	7.517140	0.000286	235.300518	4.0
42	11734.128410	7.961110	0.000281	364.700764	3.9
43	11420.277078	8.834374	0.000273	184.142976	3.3
44	11527.005500	8.821097	0.000273	607.900461	3.0
45	11377.474918	9.627755	0.000266	411.093601	3.0
46	11649.464229	10.627755	0.000258	202.084649	3.0
47	11583.649223	10.614477	0.000258	192.493858	2.6
48	11176.900409	10.640539	0.000257	335.496149	2.6
49	11466.142776	10.629181	0.000258	200.778467	2.6
50	11677.066860	11.040843	0.000254	238.162875	2.5
51	10898.417047	11.029855	0.000254	182.362912	2.3
52	11927.703841	11.017349	0.000254	251.436559	2.4
53	11040.300124	11.010390	0.000254	182.199540	2.3
54	11023.071830	11.119512	0.000254	171.588673	2.3
55	11104.256485	11.106361	0.000254	510.882952	2.1
56	11446.961280	11.100137	0.000254	329.363115	2.1
57	11263.365755	12.100137	0.000246	142.824111	2.2
58	11435.636378	12.086905	0.000246	234.168295	2.2
59	10995.144770	12.073650	0.000246	228.814171	2.2
60	11648.009803	12.064581	0.000246	285.409466	2.3
61	11438.786480	12.051303	0.000246	646.036878	2.2
62	11393.948911	13.051303	0.000239	389.816285	2.2
63	11912.385871	14.051303	0.000232	322.757173	2.2
64	11459.160160	15.051301	0.000226	214.589947	2.2
65	11298.811312	15.058438	0.000226	320.245224	2.2
66	12014.020513	15.045160	0.000226	255.489494	2.2
67	11329.363036	16.042711	0.000220	431.492798	4.8
68	11219.902306	16.029433	0.000220	224.168973	3.6
69	11834.396926	16.122094	0.000219	226.919717	2.6
70	11668.755335	16.108852	0.000220	180.050935	2.7
71	11439.175949	16.095576	0.000220	244.327971	3.1
72	11521.221816	16.127112	0.000219	166.302066	3.0
73	11375.661595	16.114003	0.000219	355.301540	3.2
74	11544.150988	16.136909	0.000219	297.920607	4.8
75	11047.298374	17.136907	0.000214	242.519219	4.8
76	11454.458369	17.455759	0.000212	392.316746	4.6
77	10780.878647	17.444858	0.000212	228.524737	4.4
78	11290.051704	18.444731	0.000207	286.560858	3.5
79	11012.488394	18.431614	0.000207	156.729706	3.4
80	11455.753920	18.475661	0.000206	207.410650	3.2
81	11392.994659	18.462391	0.000206	317.538979	2.7
82	10874.003112	19.428761	0.000201	172.085311	2.7
83	11715.818316	19.415484	0.000202	239.820115	2.6
84	11807.447272	19.457102	0.000201	383.410271	2.5
85	11595.412077	19.443825	0.000201	197.433098	2.7
86	11208.741193	19.608722	0.000201	402.600148	2.7
87	11037.139222	19.595446	0.000201	159.962310	2.8
88	11099.296258	20.570306	0.000196	202.721309	2.7
89	10886.224812	20.575008	0.000196	401.743110	2.4
90	11448.259936	21.573868	0.000191	184.225134	5.8
91	11125.527237	21.560590	0.000191	143.703367	2.4
92	11292.620484	21.547420	0.000191	202.534204	2.6
93	11546.770469	21.534372	0.000192	436.183111	2.6
94	11243.190188	22.534271	0.000187	124.756025	5.1
95	11070.881118	22.520997	0.000187	169.498042	2.5
96	11110.061946	22.507831	0.000187	127.300233	2.6
97	11059.552057	22.494723	0.000187	211.079126	2.7
98	11187.589643	22.481776	0.000187	200.603981	2.0
99	11279.610807	22.587200	0.000187	186.879111	2.1
100	10592.615150	22.576018	0.000187	194.389848	2.0
101	11530.355794	22.562819	0.000187	179.572149	2.3
102	11269.577635	22.549551	0.000187	548.612666	3.3
103	11319.180947	23.548229	0.000183	275.019208	2.0
104	11175.563596	23.534951	0.000183	456.474278	2.4
105	11049.177587	24.534950	0.000179	179.419443	4.9
106	10819.723940	24.521674	0.000179	379.234861	4.1
107	10961.634351	24.942033	0.000177	131.065340	4.8
108	11115.710501	24.928972	0.000177	498.534001	4.6
109	11496.203739	25.170969	0.000176	163.669403	4.5
110	11029.561495	25.874405	0.000174	192.646559	4.4
111	10776.542504	25.861651	0.000174	183.706729	4.3
112	11770.292724	25.915670	0.000174	205.707006	3.9
113	11255.339541	25.902412	0.000174	451.692584	3.2
114	10901.610658	26.900344	0.000170	131.265041	3.3
115	11035.232307	27.219212	0.000169	170.627367	3.1
116	10957.386281	27.240470	0.000169	177.419587	2.6
117	11179.062916	27.227714	0.000169	115.401664	2.5
118	11314.431807	27.216040	0.000169	172.082727	2.5
119	11276.760611	27.204026	0.000169	214.586611	2.3
120	10781.991532	27.190751	0.000169	233.791009	2.3
121	11037.717641	28.014914	0.000166	169.885064	2.3
122	10846.775911	28.002089	0.000166	234.430539	2.3
123	11169.402338	28.007363	0.000166	320.664330	2.3
124	11026.248104	28.998424	0.000163	156.414398	2.0
125	11019.711895	28.985154	0.000163	240.985166	2.1
126	11269.935172	29.042990	0.000163	170.737335	2.0
127	11633.353723	29.029714	0.000163	253.233989	2.1
128	11629.314022	29.017452	0.000163	204.323737	2.1
129	10920.703685	29.022074	0.000163	231.827281	2.0
130	10996.178915	29.019610	0.000163	285.812645	2.0
131	10786.805982	29.015063	0.000163	442.152858	2.0
132	11530.563193	30.015059	0.000160	247.465839	2.0
133	11513.098075	31.015058	0.000157	241.694333	2.0
134	11414.279213	31.001781	0.000157	388.065748	2.0
135	10641.335805	32.001662	0.000154	209.220677	2.0
136	11224.753533	32.982994	0.000151	165.525320	2.0
137	11625.065704	33.095607	0.000151	126.561264	2.0
138	11365.466331	33.085501	0.000151	342.581660	1.9
139	11000.493977	33.072234	0.000151	138.830520	2.0
140	11476.950880	33.059133	0.000151	102.537487	2.1
141	11427.493589	33.046433	0.000151	119.988503	4.5
142	11194.157109	33.035443	0.000151	319.643635	4.7
143	11531.285881	33.022888	0.000151	177.542187	4.7
144	11119.921047	33.009615	0.000151	396.796089	3.8
145	11331.892274	33.597617	0.000149	176.778016	3.3
146	11291.789824	34.596629	0.000147	116.806747	2.3
147	11336.392143	34.583696	0.000147	157.198518	2.6
148	11402.243100	34.573347	0.000147	386.634797	2.9
149	10443.147712	35.544471	0.000144	130.891159	3.0
150	11606.435236	35.531195	0.000144	165.310534	3.0
151	11196.599512	35.518338	0.000144	177.232372	4.5
152	11963.134926	35.505218	0.000144	275.931962	2.9
153	10563.260435	35.491967	0.000144	183.037672	2.7
154	10899.505627	35.562239	0.000144	226.887725	2.9
155	11417.031707	35.550041	0.000144	125.571913	3.0
156	11219.530758	35.565698	0.000144	156.045041	3.1
157	11238.068954	35.552603	0.000144	257.668343	2.8
158	11312.031743	35.539483	0.000144	166.966456	2.7
159	11482.294114	36.295615	0.000142	184.858576	2.6
160	11030.951832	36.282794	0.000142	181.548907	2.6
161	11298.049176	36.269530	0.000142	189.254437	2.3
162	10948.532247	36.256278	0.000142	294.841460	2.0
163	11092.458584	36.755233	0.000141	344.878491	2.2
164	11346.530981	37.755232	0.000139	331.508218	2.5
165	11039.861711	37.741955	0.000139	237.648920	2.2
166	11212.829912	38.415254	0.000137	140.868746	2.1
167	10610.677031	38.402296	0.000137	130.097672	2.1
168	11341.791308	38.401546	0.000137	219.166417	2.2
169	11107.021928	38.388311	0.000137	162.491005	4.1
170	10635.027616	38.550569	0.000137	126.346613	3.1
171	11022.703674	38.543203	0.000137	154.554988	3.0
172	10795.530857	38.534348	0.000137	109.802787	3.0
173	11301.930693	38.522458	0.000137	317.451624	2.7
174	11209.301157	38.513839	0.000137	121.560444	2.6
175	10945.182334	38.639261	0.000137	194.143920	2.8
176	10960.270930	38.643117	0.000137	255.384311	4.9
177	10827.563421	38.630541	0.000137	121.376331	4.7
178	11415.871192	38.618211	0.000137	283.466714	3.9
179	11328.747127	38.604970	0.000137	433.427251	3.1
180	11226.857801	39.202619	0.000135	191.083525	3.1
181	11282.793991	39.199723	0.000135	392.720019	3.1
182	11155.627252	39.235991	0.000135	248.648235	3.0
183	10683.611661	39.235744	0.000135	408.477831	3.0
184	11220.363781	39.223180	0.000135	338.929322	3.0
185	10690.948084	40.223180	0.000133	187.342696	2.6
186	11113.883510	40.896708	0.000132	178.944167	2.6
187	11175.527966	40.883486	0.000132	105.695369	2.6
188	11309.869532	40.872489	0.000132	150.886842	2.6
189	11238.865504	40.861534	0.000132	228.503952	2.9
190	11284.975279	40.848266	0.000132	133.095825	2.8
191	11434.904324	40.908007	0.000132	289.008558	2.8
192	11242.527283	41.172180	0.000131	171.487636	2.4
193	10975.479313	41.691085	0.000130	432.807756	2.3
194	11144.959376	41.677807	0.000130	197.487308	2.5
195	11001.589934	41.664529	0.000130	332.036441	3.1
196	11031.996672	41.651252	0.000130	743.519679	2.2
197	11247.791557	42.651252	0.000128	100.940120	2.2
198	10465.985595	42.640166	0.000128	197.133360	2.3
199	11344.769908	42.628570	0.000128	283.124794	2.2
200	11295.149307	42.615292	0.000128	173.720352	2.3
201	11017.387176	42.607402	0.000128	102.055257	2.2
202	10966.072345	42.610020	0.000128	179.144492	2.3
203	10432.232787	42.597273	0.000128	209.605168	2.3
204	11135.151758	42.631535	0.000128	387.366907	4.8
205	11393.564281	43.631436	0.000126	259.271212	4.8
206	11408.320743	43.618158	0.000126	115.426786	4.7
207	10477.557769	43.607203	0.000126	180.382032	5.2
208	11208.310960	43.596477	0.000126	112.748742	4.4
209	11065.611589	43.585218	0.000126	269.474374	4.0
210	11008.347711	43.608346	0.000126	264.356523	4.1
211	10873.252053	44.433646	0.000124	125.336241	3.1
212	10755.020109	44.667136	0.000124	238.848868	3.0
213	11061.303990	44.726706	0.000124	100.837771	3.0
214	10962.123249	44.857784	0.000124	106.644859	2.8
215	10848.026445	44.847519	0.000124	144.615369	2.7
216	10838.492003	44.836404	0.000124	186.633841	2.7
217	11070.635945	44.823585	0.000124	155.020313	2.7
218	10802.675151	44.869048	0.000124	208.959327	2.8
219	10727.620292	44.855823	0.000124	364.667887	2.8
220	11321.832757	45.508029	0.000122	183.418704	2.8
221	10687.265009	45.494752	0.000123	140.970446	2.6
222	11384.877108	45.496695	0.000122	262.515303	6.8
223	11290.300968	45.483424	0.000123	193.264195	4.8
224	10965.480258	45.470158	0.000123	246.862009	4.8
225	10625.891744	46.436312	0.000121	133.567477	4.4
226	11121.974564	46.436685	0.000121	346.393147	3.9
227	10988.494256	46.916908	0.000120	265.581687	3.8
228	11536.255628	47.910504	0.000118	140.280715	2.9
229	10660.791685	48.631551	0.000117	261.590300	2.9
230	11373.941270	48.962372	0.000116	216.928576	3.2
231	10810.617373	48.990348	0.000116	363.916057	4.4
232	11484.065645	49.027652	0.000116	286.800316	2.7
233	11055.920580	50.027652	0.000115	151.781852	2.6
234	11012.291725	50.015531	0.000115	115.872678	2.7
235	10532.814665	50.002862	0.000115	112.873005	2.6
236	11006.545393	49.995620	0.000115	117.892817	3.0
237	10570.387881	49.996915	0.000115	157.067058	2.9
238	11252.032272	50.016464	0.000115	119.489108	2.5
239	10898.761589	50.004300	0.000115	179.020577	2.4
240	10375.742115	49.992191	0.000115	189.491940	2.4
241	11234.916621	49.979768	0.000115	217.367202	2.5
242	10906.351494	50.909289	0.000113	140.891666	2.3
243	10902.782523	50.901115	0.000113	113.131338	2.2
244	11630.290653	50.888191	0.000113	246.722118	2.3
245	11022.342439	51.141998	0.000113	113.232347	2.3
246	10794.035447	51.412909	0.000112	108.961456	2.3
247	11408.179776	51.438062	0.000112	176.750180	2.3
248	10999.046225	51.572353	0.000112	160.644422	2.5
249	11069.063472	51.559908	0.000112	129.233940	4.6
250	11174.844443	51.546819	0.000112	187.264700	2.7
251	11034.629612	51.535782	0.000112	393.973008	2.8
252	11080.418003	51.522504	0.000112	560.036856	2.8
253	11016.996324	52.522504	0.000111	215.306811	2.7
254	10985.416904	53.522504	0.000109	164.577663	2.2
255	10987.822585	54.035226	0.000109	247.414696	2.3
256	10984.493445	54.906977	0.000107	121.989699	2.3
257	11193.974787	54.948039	0.000107	96.277842	2.3
258	10829.778406	54.940363	0.000107	98.804069	2.3
259	11666.346129	54.928835	0.000107	115.833257	2.3
260	11408.862526	54.917202	0.000107	126.936802	2.3
261	11486.869966	54.915473	0.000107	356.349506	2.2
262	11016.094813	54.902234	0.000107	171.641941	2.2
263	10971.612225	54.922736	0.000107	105.576224	2.1
264	10991.573683	54.909757	0.000107	134.453969	2.1
265	11346.880947	54.928213	0.000107	367.632765	2.1
266	10600.162236	55.296544	0.000107	167.188866	2.2
267	10961.802737	55.334108	0.000107	142.911145	2.3
268	11276.132220	55.327565	0.000107	237.861978	2.3
269	10970.937564	55.441289	0.000107	461.203325	2.4
270	11407.047933	56.441255	0.000105	169.242919	4.7
271	11387.142484	57.330057	0.000104	191.325053	4.9
272	11069.451040	57.338238	0.000104	107.178474	4.8
273	10859.890590	57.332691	0.000104	178.712676	3.8
274	10900.370931	57.332241	0.000104	148.263386	3.1
275	10812.912653	57.604987	0.000104	173.508812	3.1
276	11305.188702	57.637864	0.000104	151.737457	3.3
277	10825.857850	57.727170	0.000103	264.361142	3.2
278	11094.426586	57.713908	0.000103	115.998380	3.1
279	10874.727511	57.759722	0.000103	175.619152	2.6
280	10976.800521	57.746700	0.000103	160.792620	2.6
281	10901.558511	57.733637	0.000103	144.598614	2.6
282	10412.469436	57.763200	0.000103	184.998359	2.4
283	11102.989342	57.749975	0.000103	209.969415	2.3
284	11079.606388	58.609752	0.000102	135.771509	2.4
285	11061.305430	58.597784	0.000102	138.891479	2.3
286	10731.334638	58.586676	0.000102	83.859886	2.2
287	10860.610661	58.578002	0.000102	98.990602	2.1
288	10902.609357	58.576289	0.000102	160.491991	2.1
289	11181.776753	58.564123	0.000102	122.541402	5.3
290	11350.777168	58.555931	0.000102	343.251423	2.2
291	10842.005108	58.966513	0.000102	145.448976	2.3
292	11201.734560	59.940527	0.000101	175.171889	2.4
293	11103.276884	60.184829	0.000100	251.951247	4.7
294	10656.433039	61.114688	0.000099	165.289432	4.5
295	11251.505980	61.107914	0.000099	97.434380	4.6
296	10541.669760	61.108372	0.000099	151.233267	3.4
297	10901.336429	61.109079	0.000099	128.553699	3.3
298	10513.800180	61.097426	0.000099	213.130931	3.3
299	10933.376878	61.086673	0.000099	152.069444	2.7
300	11184.645025	61.443885	0.000099	235.431484	2.9
301	11004.378134	62.273670	0.000098	105.573585	4.9
302	11052.414287	62.324856	0.000098	219.675944	4.3
303	11394.188393	62.313030	0.000098	134.962315	2.8
304	10771.695335	62.299775	0.000098	97.351485	3.1
305	11455.990228	62.299361	0.000098	134.900667	3.5
306	10637.311150	62.314121	0.000098	88.514626	4.4
307	11220.601897	62.315060	0.000098	249.681422	3.7
308	10953.807973	62.332579	0.000098	192.254316	3.6
309	11429.772163	62.319301	0.000098	139.765015	3.7
310	10995.026253	62.316965	0.000098	260.432312	2.9
311	11107.811122	62.325683	0.000098	234.018268	2.8
312	11007.583228	62.426940	0.000098	131.231107	2.8
313	11003.066420	62.866214	0.000097	99.288014	2.8
314	11269.833745	62.853962	0.000097	260.673150	2.8
315	10604.495856	62.841883	0.000097	100.109825	2.8
316	11416.642766	62.845121	0.000097	81.124608	2.8
317	11067.619926	62.843014	0.000097	133.209501	2.3
318	11285.173747	62.831335	0.000097	175.184297	2.2
319	10597.907581	62.926338	0.000097	100.759600	2.2
320	10705.821750	62.917011	0.000097	197.525684	2.3
321	10747.320938	62.903949	0.000097	217.560807	2.1
322	10799.017013	63.443632	0.000096	134.774255	2.0
323	10695.531382	63.538684	0.000096	130.685114	2.0
324	10984.631390	63.546266	0.000096	311.975473	2.0
325	11175.673661	63.532990	0.000096	114.556599	2.0
326	10925.808560	63.520322	0.000096	68.286763	2.0
327	11279.598595	63.512046	0.000096	94.997596	2.1
328	11104.543456	63.510995	0.000096	317.192337	2.0
329	11324.394825	63.497943	0.000096	83.254518	2.0
330	10810.457628	63.486751	0.000096	130.923782	2.0
331	11281.116009	63.475403	0.000096	138.941521	2.0
332	11034.354816	63.463720	0.000096	126.119153	2.0
333	11006.335244	63.460985	0.000096	180.111443	2.0
334	11060.003102	63.541837	0.000096	222.310280	2.0
335	10974.880630	63.528564	0.000096	214.565976	2.0
336	11295.505539	63.515287	0.000096	255.533969	2.0
337	10747.758202	64.506971	0.000095	306.495340	1.9
338	11550.096525	65.506347	0.000094	415.061873	2.1
339	11402.376904	66.506346	0.000093	323.752796	2.0
340	10992.201996	67.506346	0.000092	141.685175	2.0
341	11061.511773	67.551824	0.000092	204.063200	2.0
342	11080.631269	67.539607	0.000092	88.129961	2.0
343	11328.274430	67.570494	0.000092	152.661884	2.0
344	10962.225964	67.558717	0.000092	149.972265	2.0
345	10723.034025	67.548268	0.000092	112.004535	2.0
346	11021.846625	67.536346	0.000092	156.275020	2.0
347	10709.929239	67.525767	0.000092	306.006171	2.0
348	10916.026009	68.332036	0.000091	148.024184	2.0
349	11020.475165	68.318759	0.000091	184.268286	2.0
350	10934.698266	68.813019	0.000091	142.597698	2.1
351	11012.647611	68.800752	0.000091	131.902639	2.0
352	11136.527421	68.863860	0.000091	165.595237	2.0
353	11442.724643	68.852016	0.000091	183.018483	2.0
354	11214.581588	68.869895	0.000091	218.136686	2.0
355	10846.066149	68.856618	0.000091	173.988896	1.9
356	11237.359243	68.843352	0.000091	75.539410	2.1
357	10821.585488	68.841598	0.000091	155.951762	2.2
358	11154.705117	68.831991	0.000091	184.931707	2.2
359	11067.823035	69.551338	0.000090	262.643780	2.1
360	10562.588528	70.481957	0.000089	116.692576	2.1
361	11755.189181	70.578337	0.000089	123.423032	2.0
362	10633.150078	70.566613	0.000089	255.346686	2.0
363	10739.091610	70.553556	0.000089	121.102878	2.3
364	10910.807436	71.234315	0.000088	96.250981	4.8
365	10939.930783	71.270165	0.000088	340.368704	4.8
366	10774.128765	72.010206	0.000088	147.310301	4.6
367	10610.018789	71.996995	0.000088	79.229879	4.7
368	10715.876977	71.985139	0.000088	142.069397	4.8
369	10898.648352	71.984481	0.000088	344.836126	4.8
370	10538.409527	72.965903	0.000087	165.773000	4.8
371	11097.543110	73.964958	0.000086	99.287766	3.4
372	11138.383011	73.958197	0.000086	125.436747	3.3
373	11545.303530	73.946166	0.000086	170.607704	3.4
374	11000.601044	73.986698	0.000086	77.113884	2.9
375	11266.099756	73.985786	0.000086	161.517853	3.4
376	11190.538506	73.982584	0.000086	88.065080	4.4
377	11217.442103	74.009394	0.000086	227.014920	4.3
378	10696.632252	74.005455	0.000086	348.890714	4.4
379	11022.268619	75.005444	0.000085	205.884498	3.4
380	11615.801625	76.005304	0.000084	172.489562	3.2
381	10546.792058	75.992031	0.000084	87.667547	3.2
382	10510.207967	75.983942	0.000084	305.562978	2.6
383	10662.143767	75.974040	0.000084	117.967396	2.7
384	10589.295906	75.960825	0.000084	133.646394	2.7
385	11138.516264	75.949138	0.000084	145.931486	2.5
386	11092.287022	76.071235	0.000084	76.094516	2.4
387	10794.570547	76.062010	0.000084	199.839840	2.3
388	10367.438286	76.050619	0.000084	168.575993	2.3
389	10884.401321	76.048534	0.000084	116.017318	2.4
390	10674.429324	76.181338	0.000084	382.404588	2.6
391	10862.040160	76.168577	0.000084	134.295168	2.6
392	10646.295018	76.155620	0.000084	65.591608	2.6
393	11372.767115	76.146127	0.000084	149.960224	2.6
