1:ItNr	2:Metric	3a:Time	3b:StepSize	4:||Gradient||	Time[ms]
0	515115.400808	0.000000	0.000029	67871.849357	190.8
1	378978.579188	0.000000	0.000029	63572.510789	2.7
2	273846.515047	0.000000	0.000029	54544.914320	2.6
3	185394.880141	0.000000	0.000029	44271.616266	3.8
4	134050.056686	0.000000	0.000029	36035.675464	3.3
5	99596.050003	0.000000	0.000029	29949.475269	3.3
6	76494.800947	0.000000	0.000029	24670.983804	3.1
7	59447.234084	0.000000	0.000029	19748.704680	4.1
8	48834.640401	0.000000	0.000029	16271.724245	2.8
9	40486.253753	0.000000	0.000029	13168.909163	3.0
10	36342.270139	0.000000	0.000029	11165.906344	3.0
11	33800.547206	0.000000	0.000029	10511.193998	2.9
12	31319.563743	0.000000	0.000029	8828.650123	3.0
13	28170.641721	0.000000	0.000029	7419.409241	3.0
14	26067.829412	0.000000	0.000029	6875.226495	3.0
15	25132.043769	0.000000	0.000029	6388.544566	2.9
16	24718.701787	0.000000	0.000029	5051.962454	3.2
17	23963.209262	0.000000	0.000029	5032.123870	3.2
18	22937.499606	0.000000	0.000029	4188.659609	3.6
19	23205.850643	0.000000	0.000029	4397.009381	2.7
20	21945.772722	0.000000	0.000029	3407.104730	2.7
21	22558.458664	0.000000	0.000029	4110.277771	3.0
22	22086.477476	0.000000	0.000029	3416.556438	2.8
23	20504.528900	0.000000	0.000029	3163.993157	2.8
24	20577.351993	0.000000	0.000029	3045.497512	2.8
25	20223.958492	0.000000	0.000029	2438.073927	3.6
26	19634.086760	0.000000	0.000029	1939.706397	2.7
27	20020.664807	0.000000	0.000029	2007.467838	2.7
28	18930.506593	0.000000	0.000029	1716.716733	2.8
29	20305.392015	0.000000	0.000029	1878.271000	3.2
30	19747.304863	0.000000	0.000029	1700.435344	2.7
31	19322.837393	0.000000	0.000029	1661.689922	2.7
32	18768.252403	0.000000	0.000029	1879.029996	2.8
33	18924.807125	0.000000	0.000029	1508.030972	4.0
34	19837.545870	0.000000	0.000029	1626.647098	4.5
35	19304.546873	0.000000	0.000029	1231.671871	4.5
36	19524.881012	0.000000	0.000029	1316.885152	4.5
37	19230.210708	0.000000	0.000029	1154.558729	4.2
38	18721.253921	0.000000	0.000029	1220.399334	3.3
39	19116.850415	0.000000	0.000029	1165.859756	3.3
40	19288.368702	0.000000	0.000029	1105.698324	3.0
41	19150.011834	0.000000	0.000029	1223.236238	2.9
42	18936.678215	0.000000	0.000029	881.714004	3.1
43	19548.637647	0.000000	0.000029	879.663621	3.0
44	18690.711654	0.000000	0.000029	819.894236	2.4
45	19038.188936	0.000000	0.000029	623.481618	2.5
46	19833.140653	0.000000	0.000029	1007.524604	2.5
47	19346.485326	0.000000	0.000029	820.028713	2.4
48	19365.452103	0.000000	0.000029	1088.673511	2.2
49	19616.023184	0.000000	0.000029	768.722869	2.2
50	19101.237604	0.000000	0.000029	790.590232	2.2
51	19172.741236	0.000000	0.000029	728.482720	2.1
52	19395.037468	0.000000	0.000029	790.880250	2.3
53	18376.315129	0.000000	0.000029	391.764044	2.3
54	18549.068410	0.000000	0.000029	599.543000	2.4
55	18594.537965	0.000000	0.000029	453.460900	2.4
56	19142.178427	0.000000	0.000029	608.527489	2.3
57	19383.810098	0.000000	0.000029	761.078445	2.5
58	18569.535660	0.000000	0.000029	332.670475	2.4
59	18462.240354	0.000000	0.000029	535.350005	2.3
60	18137.418586	0.000000	0.000029	595.111314	2.4
61	18555.070689	0.004094	0.000029	499.978214	2.5
62	19366.383562	0.000000	0.000029	614.714399	2.6
63	18178.687531	0.000000	0.000029	527.548215	2.6
64	18600.241738	0.000000	0.000029	460.491412	2.6
65	19262.410737	0.000000	0.000029	321.226676	2.9
66	18810.133130	0.000000	0.000029	456.596572	2.9
67	19021.721671	0.000000	0.000029	506.921630	2.9
68	18800.044976	0.000000	0.000029	437.589865	3.0
69	18820.828356	0.000000	0.000029	286.512572	3.1
70	18709.837006	0.000000	0.000029	593.939731	3.0
71	18430.264851	0.000000	0.000029	225.340429	3.1
72	18585.999369	0.000000	0.000029	450.598091	3.2
73	18466.037074	0.000000	0.000029	377.968452	4.9
74	18733.242412	0.000000	0.000029	214.574952	4.8
75	19585.370056	0.000000	0.000029	520.853409	4.8
76	18949.263070	0.000000	0.000029	399.399938	4.2
77	18663.295624	0.000000	0.000029	412.169851	4.3
78	18922.795248	0.000000	0.000029	349.833815	4.2
79	18510.662233	0.000000	0.000029	475.044503	3.7
80	18833.913273	0.000000	0.000029	382.401733	3.9
81	19066.099910	0.000000	0.000029	416.350753	5.3
82	18185.061890	0.000000	0.000029	310.535211	5.8
83	18713.855193	0.000000	0.000029	361.854843	4.0
84	19081.086606	0.000000	0.000029	279.100535	4.7
85	17947.696714	0.000000	0.000029	288.062308	4.9
86	18758.053519	0.000000	0.000029	361.333044	4.9
87	19949.976743	0.000000	0.000029	508.095842	4.9
88	18379.472235	0.000000	0.000029	363.618516	2.4
89	18864.407688	0.000000	0.000029	358.515793	2.4
90	18640.366916	0.002780	0.000029	270.576390	2.4
91	18474.287012	0.001775	0.000029	347.842609	2.4
92	18327.610962	0.000000	0.000029	272.504017	8.1
93	18802.215020	0.000000	0.000029	311.953261	2.9
94	18950.233096	0.000000	0.000029	227.834274	2.8
95	18827.575837	0.000000	0.000029	276.234538	2.8
96	18599.977871	0.000000	0.000029	341.535841	3.3
97	18295.759789	0.000000	0.000029	459.269612	3.5
98	18653.166533	0.016229	0.000029	368.373907	3.4
99	18771.691149	0.022745	0.000029	369.782422	4.1
100	19011.934499	0.020102	0.000029	435.039121	3.1
101	19015.728307	0.014514	0.000029	325.070666	3.2
102	19026.305055	0.010006	0.000029	366.655247	3.4
103	19345.024714	0.003944	0.000029	338.440520	3.4
104	18500.163596	0.000000	0.000029	310.681180	3.5
105	18492.380407	0.000000	0.000029	488.583408	3.7
106	19223.758179	0.000000	0.000029	373.068401	3.7
107	19418.571487	0.000000	0.000029	277.277170	3.6
108	18291.349773	0.000000	0.000029	202.802139	3.5
109	18542.293838	0.000000	0.000029	357.050763	3.7
110	18742.132243	0.000000	0.000029	280.953070	5.0
111	19505.710026	0.000000	0.000029	308.527015	5.2
112	17841.810378	0.000000	0.000029	220.654481	5.1
113	18545.572726	0.000000	0.000029	567.567914	3.7
114	18776.581800	0.000000	0.000029	274.910220	4.4
115	18854.125521	0.000000	0.000029	263.948414	4.5
116	18824.121304	0.000000	0.000029	361.756592	4.0
117	18175.548974	0.000000	0.000029	280.285494	3.5
118	18574.994530	0.000123	0.000029	257.468646	3.5
119	18908.658348	0.000000	0.000029	244.260882	3.3
120	18347.674815	0.000000	0.000029	370.200321	3.2
121	18684.954183	0.000000	0.000029	218.168817	3.2
122	18328.189771	0.000000	0.000029	400.549322	3.3
123	18332.025170	0.000000	0.000029	328.180845	3.3
124	19209.648972	0.000000	0.000029	379.942263	3.3
125	18317.993828	0.000000	0.000029	327.000646	3.4
126	18965.844707	0.002401	0.000029	206.181822	4.9
127	18551.646926	0.000000	0.000029	347.854437	4.6
128	18587.933574	0.000000	0.000029	402.469603	5.2
129	18395.683274	0.000000	0.000029	396.812509	5.3
130	18903.574920	0.000000	0.000029	358.721913	4.6
131	17807.831768	0.000000	0.000029	415.683728	4.6
132	18274.631587	0.006049	0.000029	253.073602	4.6
133	18633.144891	0.000284	0.000029	342.789470	5.4
134	18815.475185	0.000000	0.000029	287.613031	4.3
135	18549.254662	0.002421	0.000029	234.204718	3.6
136	18609.731126	0.000000	0.000029	301.377352	3.0
137	18630.224442	0.000000	0.000029	302.672145	2.8
138	18126.172402	0.000000	0.000029	228.864672	3.0
139	18277.393703	0.000000	0.000029	273.512237	3.4
140	18651.597395	0.000000	0.000029	270.212689	3.4
141	18476.746632	0.000000	0.000029	341.204986	5.0
142	17972.111804	0.000000	0.000029	472.845746	2.6
143	18976.624381	0.000000	0.000029	352.405065	2.5
144	18123.844224	0.015027	0.000029	399.112335	2.5
145	17477.624422	0.007061	0.000029	228.992529	2.6
146	18825.650426	0.001517	0.000029	264.899089	5.8
147	18801.444940	0.000000	0.000029	266.257362	3.2
148	18057.978157	0.000000	0.000029	301.683678	3.1
149	18613.033248	0.000000	0.000029	231.947651	2.5
150	17888.664088	0.000000	0.000029	322.380551	2.5
151	18464.224184	0.000000	0.000029	296.763848	2.5
152	19138.922378	0.003256	0.000029	446.159751	2.5
153	18174.702145	0.003546	0.000029	255.337106	3.2
154	19294.748501	0.003533	0.000029	326.690289	3.0
155	18983.635002	0.000000	0.000029	408.705093	2.4
156	19533.917561	0.000000	0.000029	348.454153	2.6
157	19199.378787	0.000000	0.000029	311.073333	2.4
158	18517.513104	0.000000	0.000029	345.960607	2.4
159	17701.565276	0.000000	0.000029	260.370595	2.4
160	18963.075124	0.000355	0.000029	251.668960	2.4
161	18341.257882	0.000000	0.000029	265.637257	2.5
162	19199.710459	0.000000	0.000029	366.077233	2.4
163	18261.956104	0.002097	0.000029	366.920602	2.5
164	18699.012864	0.005846	0.000029	259.341954	2.6
165	19453.492920	0.000000	0.000029	370.635348	3.0
166	18579.128242	0.000000	0.000029	361.105641	5.0
167	18658.004259	0.000000	0.000029	282.818930	5.0
168	18641.789232	0.000000	0.000029	307.475235	3.2
169	18796.601350	0.001715	0.000029	318.377045	3.7
170	18168.961682	0.000000	0.000029	233.064689	3.6
171	18448.387274	0.000000	0.000029	206.549406	3.7
172	18987.845233	0.000000	0.000029	262.520982	3.6
173	18714.675796	0.000000	0.000029	258.852743	3.6
174	19429.477909	0.000000	0.000029	322.478266	3.4
175	18272.624382	0.000000	0.000029	206.445889	3.3
176	19870.279895	0.000000	0.000029	469.703887	3.4
177	17911.118166	0.000000	0.000029	816.171946	3.4
178	18374.748371	0.085844	0.000029	276.947396	3.3
179	18996.662153	0.082120	0.000029	249.852987	3.3
180	18237.692159	0.077259	0.000029	222.294212	3.2
181	18712.368901	0.074865	0.000029	242.504603	3.2
182	19015.927376	0.070179	0.000029	346.604430	3.2
183	18767.483781	0.069572	0.000029	276.650580	3.2
184	19380.344581	0.063209	0.000029	222.349180	3.4
185	18423.777904	0.059191	0.000029	228.336173	3.5
186	19156.158915	0.055382	0.000029	449.813682	3.2
187	18637.870074	0.054697	0.000029	292.172115	2.8
188	18543.969564	0.048167	0.000029	213.061236	2.8
189	18264.592139	0.046436	0.000029	235.402214	2.8
190	18197.662947	0.042704	0.000029	273.019930	5.1
191	18842.671082	0.041096	0.000029	267.379727	3.0
192	19216.487193	0.040993	0.000029	389.562162	2.9
193	18357.910228	0.034680	0.000029	252.423990	5.8
194	19043.776118	0.035679	0.000029	497.987734	5.0
195	18210.835593	0.033184	0.000029	580.808954	4.9
196	17754.308183	0.101216	0.000029	323.487284	4.7
197	18225.240402	0.116444	0.000029	290.090456	3.8
198	18782.819494	0.111989	0.000029	474.584168	4.0
199	18252.497075	0.105632	0.000029	212.665970	3.8
200	17676.794265	0.101709	0.000029	278.248828	3.6
201	17987.232941	0.098689	0.000029	343.920732	3.8
202	18639.670815	0.099266	0.000029	317.509092	3.5
203	19043.671749	0.092956	0.000029	477.522225	3.5
204	19062.684906	0.095844	0.000029	294.613199	4.3
205	19797.077993	0.091223	0.000029	285.553444	3.2
206	18228.033875	0.090808	0.000029	577.851195	3.2
207	18120.561209	0.090736	0.000029	216.283213	3.4
208	18971.618928	0.084153	0.000029	258.608488	3.2
209	18764.904613	0.080134	0.000029	349.050105	3.4
210	18901.231147	0.079444	0.000029	544.287484	3.2
211	18495.706122	0.071878	0.000029	332.087164	3.5
212	19110.484999	0.086955	0.000029	396.098680	4.3
213	18815.024666	0.085712	0.000029	325.747370	4.3
214	18783.825159	0.086821	0.000029	519.506440	4.2
215	18378.114359	0.091384	0.000029	394.710068	5.1
216	18563.170914	0.120306	0.000029	307.271266	5.1
217	18142.448323	0.121073	0.000029	242.931593	4.8
218	19728.657581	0.120261	0.000029	323.988276	5.0
219	19030.187058	0.119310	0.000029	382.537056	5.0
220	18712.809173	0.121701	0.000029	314.857236	5.0
221	19388.885035	0.122777	0.000029	267.818743	4.6
222	18256.035193	0.116634	0.000029	301.883120	3.9
223	18393.730140	0.116262	0.000029	315.446626	3.9
224	18788.149013	0.116946	0.000029	297.200678	3.7
225	18482.355454	0.112372	0.000029	441.711346	3.6
226	18944.936673	0.107147	0.000029	343.238912	3.6
227	18168.046115	0.117188	0.000029	200.578750	3.3
228	18799.952081	0.113683	0.000029	248.777129	3.2
229	19245.012418	0.109602	0.000029	261.350688	3.2
230	18935.708366	0.104679	0.000029	357.977397	3.3
231	18547.718353	0.101346	0.000029	369.527662	3.5
232	19310.518055	0.095463	0.000029	740.593931	3.3
233	18944.142004	0.118575	0.000029	248.036788	3.2
234	18716.734249	0.115583	0.000029	286.991291	5.2
235	18538.409016	0.110156	0.000029	276.997521	3.3
236	18858.344343	0.104336	0.000029	316.730018	3.0
237	18409.907320	0.099649	0.000029	338.634795	3.0
238	18355.495885	0.096673	0.000029	332.894087	3.1
239	18148.309467	0.100883	0.000029	323.785454	3.1
240	19279.953034	0.099038	0.000029	295.908327	3.1
241	18237.518331	0.095196	0.000029	498.249550	3.0
242	18074.214482	0.087661	0.000029	304.319008	3.2
243	18175.447488	0.087275	0.000029	303.897375	3.2
244	18325.763135	0.084129	0.000029	289.886913	3.2
245	18426.428467	0.077745	0.000029	327.964036	3.6
246	18125.279953	0.073448	0.000029	203.893751	3.4
247	19207.316721	0.070045	0.000029	397.099734	3.4
248	19272.255612	0.065759	0.000029	278.601676	2.7
249	18092.277381	0.069172	0.000029	279.716773	2.8
250	18392.495226	0.068416	0.000029	355.088663	2.7
251	18713.310567	0.072130	0.000029	374.500716	3.5
252	18688.607647	0.064419	0.000029	328.126995	3.3
253	18279.354210	0.064753	0.000029	313.061347	3.3
254	17545.711937	0.060593	0.000029	430.344687	3.4
255	19532.354628	0.053947	0.000029	250.049233	2.7
256	18224.074030	0.053076	0.000029	442.274502	2.4
257	18094.276030	0.049122	0.000029	327.917066	2.5
258	18320.251594	0.050058	0.000029	214.288579	5.4
259	18938.881817	0.047035	0.000029	349.676719	2.6
260	18866.373244	0.044188	0.000029	213.043088	2.5
261	18213.640408	0.040616	0.000029	280.738041	2.9
262	19696.631887	0.037543	0.000029	368.422040	2.9
263	17941.031823	0.033302	0.000029	261.578238	2.8
264	18188.763734	0.030186	0.000029	490.051525	2.7
265	18970.887331	0.029700	0.000029	276.576640	3.9
266	17967.326971	0.035504	0.000029	536.250925	2.9
267	18579.344620	0.033728	0.000029	424.532942	3.0
268	18049.499884	0.030187	0.000029	353.508966	3.1
269	18614.213491	0.042066	0.000029	290.635552	3.2
270	18688.332274	0.035241	0.000029	265.316983	3.1
271	19110.296765	0.033042	0.000029	320.818742	2.7
272	17906.164596	0.031294	0.000029	299.871122	2.6
273	18727.240531	0.025199	0.000029	266.414392	2.7
274	18894.978533	0.020472	0.000029	414.249175	2.7
275	18660.373875	0.018586	0.000029	316.460845	2.8
276	18185.990266	0.019240	0.000029	387.935909	2.8
277	17459.820516	0.021339	0.000029	581.780641	2.9
278	18827.799918	0.012035	0.000029	356.352713	3.0
279	18031.626762	0.003837	0.000029	326.067685	3.0
280	18758.072155	0.000000	0.000029	215.424637	3.0
281	18487.977751	0.000000	0.000029	225.027537	3.2
282	18888.400762	0.000000	0.000029	222.320826	3.5
283	18202.744714	0.000000	0.000029	463.810701	3.3
284	18990.226194	0.000000	0.000029	226.463839	3.3
285	19178.774073	0.000000	0.000029	272.966439	3.2
286	18217.355734	0.000000	0.000029	295.709807	3.3
287	18631.885255	0.000000	0.000029	314.258067	3.5
288	18103.534040	0.000000	0.000029	249.556683	3.7
289	18938.259916	0.000000	0.000029	366.663772	3.6
290	18789.364220	0.000000	0.000029	226.654245	3.4
291	18974.110984	0.000000	0.000029	520.780816	3.5
292	18402.446969	0.000000	0.000029	245.904950	3.4
293	18077.410804	0.000000	0.000029	323.842549	2.8
294	17843.825855	0.000000	0.000029	295.722585	2.9
295	19723.537746	0.000000	0.000029	389.832316	2.9
296	18523.702281	0.000000	0.000029	295.148595	2.8
297	18087.805497	0.000364	0.000029	295.641983	2.8
298	18342.358591	0.000513	0.000029	272.767817	2.8
299	18922.890743	0.000000	0.000029	357.238393	2.9
300	19015.721558	0.000000	0.000029	514.572276	2.8
301	18660.065752	0.018945	0.000029	270.892255	2.8
302	18504.562269	0.023008	0.000029	476.820978	2.9
303	18500.504010	0.017653	0.000029	354.594266	2.8
304	18288.834437	0.017581	0.000029	283.693948	3.9
305	18787.482824	0.017036	0.000029	251.050306	2.8
306	19191.846834	0.014932	0.000029	470.244409	2.9
307	18140.418205	0.010175	0.000029	302.953578	3.2
308	18012.468491	0.011769	0.000029	283.503344	3.4
309	19061.344544	0.009714	0.000029	367.622900	3.2
310	18478.097684	0.007010	0.000029	313.049982	2.7
311	19139.195866	0.011869	0.000029	322.040036	2.7
312	18648.341635	0.006384	0.000029	213.663735	2.7
313	18651.711936	0.002999	0.000029	324.935266	2.6
314	17924.194035	0.000000	0.000029	320.418827	2.5
315	18505.593569	0.002827	0.000029	364.943076	2.5
316	18040.087026	0.000000	0.000029	291.183076	2.5
317	18285.009863	0.000817	0.000029	295.256869	2.6
318	17952.283602	0.000000	0.000029	410.105469	2.6
319	17797.712477	0.000000	0.000029	527.722695	2.6
320	19451.009600	0.023170	0.000029	273.786900	4.8
321	18958.670376	0.018611	0.000029	429.682999	2.7
322	18108.928789	0.012104	0.000029	435.756507	2.6
323	18426.711305	0.027277	0.000029	458.795140	2.5
324	18700.034357	0.022296	0.000029	370.506917	3.2
325	19003.796724	0.029444	0.000029	521.246200	4.1
326	18866.612201	0.038059	0.000029	233.922346	4.0
327	17853.052837	0.036458	0.000029	341.537172	3.8
328	17748.199132	0.031438	0.000029	252.205405	2.4
329	18933.413640	0.027809	0.000029	332.129740	2.4
330	18289.047625	0.028570	0.000029	249.814352	2.4
331	17694.205461	0.024227	0.000029	595.296530	2.5
332	18084.130857	0.021756	0.000029	253.397140	2.4
333	18906.206372	0.015171	0.000029	352.321517	2.4
334	18921.727815	0.014071	0.000029	462.777439	2.4
335	17734.363938	0.006967	0.000029	390.445719	2.5
336	17948.198475	0.000818	0.000029	351.258612	2.5
337	17806.519084	0.002109	0.000029	419.738086	2.5
338	17997.280474	0.001081	0.000029	229.568360	2.5
339	19066.563776	0.000514	0.000029	270.085838	2.5
340	18669.077254	0.000000	0.000029	288.298651	2.5
341	18025.293718	0.000000	0.000029	252.570329	2.6
342	17330.554829	0.000000	0.000029	459.282701	2.6
343	17799.204163	0.000000	0.000029	361.455819	2.9
344	18061.579765	0.001573	0.000029	408.568206	2.9
345	18727.432425	0.001107	0.000029	304.581102	2.9
346	18780.370211	0.000000	0.000029	284.179184	3.1
347	18209.746454	0.000000	0.000029	247.036310	3.0
348	17775.968435	0.000000	0.000029	299.101785	3.0
349	18682.041484	0.000000	0.000029	265.775699	3.0
350	18484.097252	0.000000	0.000029	288.938465	3.1
351	18315.141622	0.000000	0.000029	295.055173	3.1
352	18439.786239	0.000000	0.000029	386.991393	3.0
353	18264.880260	0.000998	0.000029	231.511814	3.0
354	18658.245779	0.000792	0.000029	269.108366	3.0
355	18762.894168	0.000000	0.000029	268.803969	3.1
356	18076.033753	0.000000	0.000029	395.206265	2.9
357	19264.451417	0.001926	0.000029	319.774947	3.0
358	18746.369597	0.005824	0.000029	640.542968	3.0
359	18717.044615	0.003562	0.000029	309.747874	3.5
360	18273.544324	0.000000	0.000029	366.111566	3.2
361	18459.290113	0.000000	0.000029	271.318381	3.2
362	18583.476421	0.000000	0.000029	214.506149	3.2
363	18937.651743	0.000000	0.000029	322.549036	3.3
364	18716.945648	0.000000	0.000029	263.515875	3.3
365	18810.468742	0.000000	0.000029	432.549401	3.4
366	18126.405708	0.000000	0.000029	376.114918	3.5
367	18730.155464	0.005570	0.000029	326.394569	3.6
368	18607.066534	0.008841	0.000029	344.406192	3.6
369	19256.777983	0.003137	0.000029	279.353278	5.0
370	18807.287961	0.000678	0.000029	267.447348	3.4
371	18555.581921	0.000000	0.000029	275.171654	3.6
372	18916.547175	0.000000	0.000029	303.290035	3.5
373	19185.547721	0.000000	0.000029	355.641329	3.4
374	17957.074094	0.000000	0.000029	355.833705	3.5
375	18631.921468	0.006223	0.000029	343.966810	3.4
376	19025.285528	0.000000	0.000029	489.706668	3.3
377	17771.404633	0.000000	0.000029	194.681479	3.2
378	18889.712923	0.000000	0.000029	208.717833	3.6
379	17676.275832	0.000000	0.000029	270.201252	3.2
380	18064.332610	0.000000	0.000029	314.015839	3.1
381	17270.480484	0.000000	0.000029	241.737940	4.3
382	18035.412276	0.000000	0.000029	291.650786	4.4
383	18634.506465	0.000000	0.000029	412.025557	4.2
384	19051.975602	0.000000	0.000029	433.545341	4.1
385	18849.370841	0.003580	0.000029	432.925875	3.7
386	18656.854324	0.005149	0.000029	266.255355	3.6
387	19396.710119	0.005445	0.000029	241.191596	3.6
388	17535.531854	0.001605	0.000029	290.000543	3.7
389	19191.890853	0.000000	0.000029	307.121139	5.5
390	18454.155346	0.000415	0.000029	320.879061	5.2
391	17580.208930	0.000000	0.000029	202.405225	5.1
392	18459.582943	0.000000	0.000029	290.064913	5.6
393	18541.120394	0.000000	0.000029	218.593719	4.9
394	19194.811341	0.000000	0.000029	427.709171	4.0
395	18973.485708	0.000000	0.000029	387.625084	4.1
396	18549.279261	0.000000	0.000029	507.496394	5.0
397	18629.073366	0.003730	0.000029	244.845734	5.0
398	19813.938668	0.005300	0.000029	307.715185	4.0
