1:ItNr	2:Metric	3a:Time	3b:StepSize	4:||Gradient||	Time[ms]
0	15907.080044	0.000000	0.000462	3987.733455	188.2
1	9371.000783	0.000000	0.000462	3706.960629	1.2
2	3937.888976	0.000000	0.000462	2085.326868	1.3
3	2269.527686	0.000000	0.000462	1290.928274	1.3
4	1768.767478	0.000000	0.000462	913.000644	1.3
5	1465.782581	0.000000	0.000462	607.717711	1.3
6	1259.176531	0.000000	0.000462	363.396136	1.3
7	1205.247704	0.000000	0.000462	334.111691	1.3
8	1019.612618	0.000000	0.000462	338.486242	1.2
9	961.127999	0.000000	0.000462	251.984239	1.3
10	921.658562	0.000000	0.000462	198.549010	1.3
11	899.453114	0.000000	0.000462	146.645363	1.3
12	874.715298	0.000000	0.000462	115.849078	1.3
13	885.213692	0.000000	0.000462	94.351685	1.4
14	864.908334	0.000000	0.000462	101.023006	1.3
15	894.332722	0.000000	0.000462	70.053022	1.3
16	866.531854	0.000000	0.000462	47.841886	1.3
17	891.072754	0.000000	0.000462	54.381180	1.4
18	888.674163	0.000000	0.000462	59.314977	1.4
19	867.908817	0.000179	0.000462	42.273254	1.4
20	907.156161	0.000000	0.000462	120.184554	1.5
21	873.081643	0.000000	0.000462	34.308584	1.4
22	889.928698	0.000000	0.000462	48.875312	1.4
23	840.929667	0.000000	0.000462	34.149992	1.5
24	841.710436	0.000000	0.000462	80.659699	1.6
25	868.538676	0.000000	0.000462	52.685628	1.5
26	847.665103	0.029818	0.000461	43.459686	1.5
27	854.914708	0.029650	0.000461	48.227659	1.5
28	839.861558	0.024552	0.000461	38.650246	1.5
29	875.969137	0.017375	0.000461	53.519163	1.5
30	826.432172	0.009025	0.000462	35.018898	2.1
31	827.388034	0.001413	0.000462	43.372044	4.2
32	862.142815	0.000000	0.000462	40.933964	4.1
33	828.522911	0.000000	0.000462	57.187571	3.6
34	843.532836	0.000000	0.000462	39.856329	4.2
35	848.878526	0.000000	0.000462	35.539725	4.2
36	876.739029	0.000000	0.000462	45.273618	4.1
37	861.632710	0.000000	0.000462	72.403065	4.1
38	878.620662	0.000000	0.000462	64.665470	3.0
39	859.724958	0.029163	0.000461	33.197637	2.9
40	840.588887	0.028626	0.000461	43.370962	2.7
41	840.654907	0.024422	0.000461	42.712993	2.6
42	874.896087	0.024002	0.000461	59.718600	2.7
43	855.055967	0.015178	0.000461	41.980237	3.0
44	875.166423	0.013708	0.000461	37.305201	2.8
45	874.956506	0.009009	0.000462	39.074425	2.1
46	863.886083	0.003084	0.000462	39.683103	2.3
47	808.429945	0.000000	0.000462	38.857282	2.6
48	861.698739	0.000000	0.000462	50.729569	2.2
49	869.127429	0.000000	0.000462	51.298156	2.1
50	860.457699	0.000000	0.000462	43.586872	1.9
51	838.057139	0.000000	0.000462	82.869949	1.9
52	856.366864	0.023528	0.000461	46.695075	1.9
53	851.640687	0.023303	0.000461	43.517357	3.2
54	839.247329	0.026229	0.000461	34.742408	1.7
55	844.057233	0.021560	0.000461	58.012806	1.7
56	861.488674	0.017039	0.000461	48.570184	1.8
57	829.551985	0.029889	0.000461	41.628056	1.7
58	815.984149	0.029058	0.000461	51.059077	1.7
59	851.193406	0.019907	0.000461	38.010642	1.7
60	803.855182	0.018624	0.000461	60.829787	1.6
61	823.016095	0.014322	0.000461	39.038649	1.7
62	855.144183	0.021307	0.000461	76.299698	1.6
63	865.552731	0.013677	0.000461	56.325409	1.6
64	837.174383	0.009762	0.000462	87.983836	1.6
65	846.120040	0.044964	0.000461	52.070100	1.7
66	843.529458	0.091295	0.000460	45.212959	1.9
67	843.311636	0.082069	0.000460	40.800000	1.9
68	857.263630	0.082047	0.000460	44.058947	1.9
69	834.974665	0.080814	0.000460	40.271948	2.0
70	839.883336	0.074174	0.000460	56.326383	1.9
71	870.757929	0.077292	0.000460	48.278053	2.3
72	856.335455	0.067734	0.000460	45.499307	2.0
73	854.842632	0.069974	0.000460	45.937452	1.9
74	860.061376	0.062581	0.000460	39.089006	1.9
75	861.279555	0.060639	0.000460	53.619174	2.0
76	813.595532	0.051622	0.000461	104.351423	2.1
77	862.424292	0.187743	0.000458	57.497732	2.1
78	830.727232	0.445734	0.000452	37.877868	2.2
79	842.012823	0.441361	0.000452	49.078493	2.1
80	807.523843	0.440153	0.000452	39.576058	1.9
81	861.139508	0.438948	0.000452	41.968057	1.7
82	852.044983	0.438562	0.000452	57.910552	1.7
83	849.721838	0.447896	0.000452	39.675377	1.7
84	872.615614	0.441469	0.000452	62.738603	1.7
85	827.269150	0.437476	0.000452	61.569405	1.7
86	846.040259	0.435964	0.000452	54.887464	1.7
87	843.359860	0.439910	0.000452	65.297234	1.9
88	854.226440	0.432729	0.000452	31.682910	3.8
89	818.600925	0.427171	0.000453	68.076951	3.8
90	850.465534	0.422095	0.000453	39.716446	3.4
91	822.306809	0.423959	0.000453	39.750204	3.3
92	832.041372	0.416665	0.000453	47.077566	3.4
93	849.218950	0.409233	0.000453	67.558107	2.7
94	814.956094	0.406710	0.000453	30.781642	2.6
95	845.739937	0.398495	0.000453	39.396572	2.6
96	841.401876	0.392285	0.000453	44.858340	2.6
97	850.494316	0.385701	0.000453	47.204060	2.5
98	791.643797	0.383367	0.000453	75.782193	2.5
99	866.728927	0.375200	0.000454	49.288772	3.2
100	812.246827	0.383976	0.000453	53.610027	2.9
101	846.224354	0.375759	0.000454	35.571107	2.9
102	842.431098	0.369593	0.000454	38.258072	2.8
103	868.970995	0.366665	0.000454	62.277959	2.8
104	844.677603	0.370317	0.000454	49.490291	2.5
105	840.753862	0.373850	0.000454	74.218200	2.5
106	857.183798	0.365895	0.000454	41.894437	2.5
107	823.883704	0.398684	0.000453	45.776867	2.6
108	813.485627	0.390782	0.000453	41.508613	2.8
109	833.856146	0.393768	0.000453	74.725065	2.9
110	842.648785	0.383659	0.000453	58.900014	2.8
111	863.184474	0.375966	0.000454	79.001744	2.2
112	856.880176	0.425946	0.000453	69.086249	2.1
113	820.997891	0.427701	0.000453	35.696440	2.3
114	869.612979	0.432232	0.000452	57.134188	2.2
115	833.579451	0.435262	0.000452	52.543715	2.0
116	830.410190	0.444414	0.000452	37.166583	1.9
117	853.716932	0.441003	0.000452	48.801809	1.8
118	844.269702	0.435584	0.000452	68.517174	1.9
119	843.532044	0.441692	0.000452	38.706711	2.4
120	815.049099	0.452624	0.000452	48.498198	4.2
121	840.715381	0.448510	0.000452	41.528994	4.1
122	826.560302	0.451020	0.000452	36.562684	4.7
123	813.930688	0.443540	0.000452	47.475911	3.8
124	807.288462	0.436473	0.000452	49.776402	2.0
125	829.264959	0.430787	0.000452	32.657433	2.2
126	813.362148	0.424323	0.000453	70.016886	2.6
127	790.441482	0.431589	0.000452	30.096870	2.6
128	833.425628	0.436089	0.000452	49.867506	2.5
129	805.521884	0.429449	0.000452	39.874413	2.5
130	811.563052	0.427686	0.000453	35.293325	3.5
131	798.976075	0.427223	0.000453	32.286917	2.1
132	830.812414	0.425215	0.000453	44.244595	2.0
133	825.631948	0.423073	0.000453	64.086796	2.0
134	833.179512	0.439197	0.000452	30.499794	1.9
135	840.533580	0.438724	0.000452	34.040173	3.1
136	829.300708	0.438386	0.000452	77.424661	2.1
137	807.655004	0.435061	0.000452	43.252680	4.1
138	823.216764	0.455326	0.000452	50.593147	1.9
139	827.931434	0.446566	0.000452	52.119181	2.0
140	836.701412	0.439938	0.000452	35.570374	1.9
141	825.274395	0.432427	0.000452	52.546907	1.9
142	798.102668	0.429418	0.000452	52.812254	1.9
143	815.510809	0.427673	0.000453	42.374323	2.0
144	811.017279	0.422673	0.000453	40.817879	1.9
145	839.650389	0.428215	0.000453	28.093007	1.9
146	811.139846	0.424135	0.000453	41.771295	2.0
147	821.181444	0.421076	0.000453	32.151576	3.9
148	818.575506	0.414347	0.000453	28.563895	3.9
149	818.937175	0.410712	0.000453	47.161698	3.7
150	847.767426	0.410557	0.000453	40.832969	2.8
151	798.798184	0.415362	0.000453	41.029398	2.8
152	839.182353	0.412892	0.000453	31.262942	2.8
153	818.476750	0.413337	0.000453	38.437218	2.3
154	824.406961	0.406584	0.000453	62.951279	2.3
155	800.715899	0.421641	0.000453	26.166093	2.3
156	820.553661	0.425128	0.000453	45.734415	2.4
157	823.813527	0.422172	0.000453	71.714243	3.8
158	815.228381	0.438351	0.000452	60.683687	3.9
159	820.939774	0.510491	0.000451	24.543624	3.6
160	786.094036	0.506048	0.000451	35.471299	2.9
161	817.615457	0.503692	0.000451	35.874857	2.9
162	839.969728	0.506150	0.000451	33.007278	2.9
163	804.519054	0.502617	0.000451	30.531515	2.3
164	813.962924	0.501856	0.000451	39.621750	2.3
165	851.065711	0.495436	0.000451	43.503970	2.2
166	824.196126	0.501341	0.000451	45.523214	2.2
167	790.347680	0.498955	0.000451	43.845491	2.1
168	805.461865	0.492277	0.000451	51.705205	1.9
169	827.746667	0.500493	0.000451	37.647297	1.9
170	800.872430	0.493629	0.000451	44.627548	1.9
171	810.334688	0.487925	0.000451	65.499626	1.9
172	799.914364	0.493628	0.000451	39.672926	1.9
173	821.395066	0.486773	0.000451	80.759899	1.8
174	826.875454	0.487545	0.000451	78.079687	1.8
175	799.139239	0.847813	0.000444	25.762144	1.8
176	816.933746	0.857564	0.000444	39.212174	1.7
177	823.715452	0.854513	0.000444	43.893782	1.7
178	815.134816	0.865553	0.000443	55.143478	2.0
179	802.898380	0.856853	0.000444	52.815047	4.5
180	822.222236	0.880000	0.000443	72.901913	8.4
181	820.453426	0.977260	0.000441	69.026700	2.2
182	795.522042	0.988466	0.000441	43.906323	2.4
183	819.848190	1.040726	0.000440	53.112274	3.0
184	823.303652	1.032361	0.000440	42.877592	2.5
185	836.538434	1.038171	0.000440	29.556814	2.5
186	827.963832	1.032089	0.000440	42.470813	2.5
187	790.267143	1.024844	0.000440	51.688009	2.5
188	819.900583	1.048293	0.000440	47.045853	2.4
189	821.002662	1.047672	0.000440	30.256264	2.4
190	827.510715	1.047251	0.000440	31.146374	2.4
191	807.791084	1.043134	0.000440	30.652251	4.4
192	840.889730	1.040558	0.000440	31.231055	2.0
193	808.440487	1.036086	0.000440	55.236480	2.0
194	808.076104	1.032873	0.000440	39.942726	2.0
195	809.283329	1.051884	0.000440	37.625842	2.9
196	795.612697	1.055168	0.000440	24.181835	4.1
197	790.654106	1.052889	0.000440	47.575636	3.9
198	783.742549	1.048128	0.000440	36.534432	4.0
199	822.502448	1.061195	0.000440	35.058766	4.5
200	796.366735	1.058585	0.000440	49.100302	2.7
201	788.172974	1.059246	0.000440	51.782192	3.0
202	822.384711	1.061805	0.000440	36.076271	3.0
203	803.402795	1.069178	0.000439	47.566675	2.9
204	790.915774	1.075581	0.000439	54.231367	2.2
205	829.597125	1.100352	0.000439	51.885278	2.2
206	801.377321	1.115121	0.000438	42.496855	2.2
207	821.799937	1.129879	0.000438	48.485545	2.2
208	821.931581	1.150774	0.000438	57.972418	1.9
209	846.167114	1.187717	0.000437	57.558389	2.0
210	810.360067	1.218974	0.000436	46.693240	2.0
211	786.619079	1.232952	0.000436	29.453774	2.3
212	803.884875	1.227271	0.000436	32.155884	2.0
213	816.930128	1.223078	0.000436	26.136942	1.9
214	805.757353	1.219960	0.000436	83.669320	1.8
215	806.951228	1.236041	0.000436	36.910802	1.7
216	797.229073	1.239412	0.000436	30.729409	1.7
217	799.086003	1.232530	0.000436	61.850564	1.7
218	806.756616	1.233422	0.000436	22.532331	1.7
219	802.655148	1.231547	0.000436	24.841183	1.7
220	793.749566	1.228380	0.000436	54.832601	1.9
221	828.481165	1.230607	0.000436	72.362832	1.7
222	808.427862	1.349161	0.000434	37.108400	1.7
223	812.739473	1.341087	0.000434	39.178389	1.7
224	826.355005	1.341614	0.000434	46.536521	1.8
225	814.555283	1.339587	0.000434	38.457358	1.8
226	838.722599	1.335686	0.000434	41.766986	1.8
227	824.703796	1.327729	0.000434	39.742830	1.7
228	814.309216	1.337656	0.000434	44.766763	4.8
229	813.502736	1.330037	0.000434	42.561719	2.2
230	821.268094	1.323559	0.000434	44.596592	1.7
231	819.553531	1.316154	0.000435	41.776146	1.8
232	800.509523	1.326850	0.000434	44.630066	1.8
233	788.053268	1.320818	0.000434	20.698453	1.7
234	835.479930	1.316231	0.000435	22.720809	1.7
235	818.555495	1.314596	0.000435	31.229500	1.7
236	806.266904	1.311648	0.000435	32.198569	1.7
237	765.345254	1.313614	0.000435	47.678942	1.7
238	803.638272	1.306975	0.000435	36.523155	1.7
239	805.219097	1.314066	0.000435	29.689055	1.7
240	793.313704	1.310644	0.000435	33.116713	1.7
241	816.375607	1.305910	0.000435	32.184303	1.8
242	814.514948	1.309994	0.000435	34.902441	1.7
243	828.266622	1.310887	0.000435	35.430958	1.7
244	810.660765	1.312398	0.000435	40.172600	1.9
245	800.640455	1.306308	0.000435	36.631779	4.1
246	817.753451	1.308728	0.000435	23.542827	3.9
247	814.635509	1.303173	0.000435	29.784850	1.7
248	816.206424	1.298747	0.000435	52.985034	1.9
249	819.721321	1.298949	0.000435	53.333740	2.0
250	811.052283	1.354072	0.000434	26.951963	2.0
251	788.658307	1.349150	0.000434	45.499974	2.1
252	801.056645	1.350160	0.000434	35.351806	2.2
253	806.823334	1.342853	0.000434	46.137274	4.1
254	823.689785	1.334635	0.000434	96.416883	4.1
255	778.266061	1.526047	0.000430	25.144448	4.2
256	797.099832	1.523832	0.000431	26.660095	3.9
257	828.961031	1.524893	0.000430	46.920495	2.1
258	827.426006	1.525574	0.000430	23.333376	2.2
259	787.248034	1.530690	0.000430	22.796785	2.5
260	849.465550	1.529246	0.000430	77.349655	2.5
261	830.097592	1.534648	0.000430	36.027729	2.5
262	818.001084	1.532807	0.000430	56.690056	2.3
263	786.058973	1.533639	0.000430	37.671926	2.0
264	789.604785	1.524606	0.000430	47.720283	1.9
265	781.682267	1.522945	0.000431	22.116182	2.0
266	831.990070	1.519261	0.000431	37.696126	2.0
267	800.506771	1.516871	0.000431	23.166491	1.9
268	835.242562	1.513292	0.000431	69.847692	1.9
269	834.516054	1.517662	0.000431	44.610609	2.3
270	794.299713	1.534658	0.000430	19.762769	1.7
271	789.039681	1.529846	0.000430	39.607713	1.7
272	795.815521	1.529217	0.000430	31.335462	1.7
273	775.952292	1.526701	0.000430	28.025921	1.7
274	788.227339	1.527694	0.000430	34.944664	1.7
275	772.106574	1.528361	0.000430	28.596631	1.7
276	822.292543	1.528216	0.000430	32.992806	1.8
277	798.224457	1.529220	0.000430	27.733458	1.7
278	791.366655	1.533946	0.000430	39.444319	1.7
279	822.630005	1.529439	0.000430	39.710426	1.9
280	761.612700	1.521862	0.000431	44.421266	1.8
281	817.748696	1.533824	0.000430	45.230524	3.6
282	801.507275	1.526180	0.000430	20.210813	4.2
283	812.722774	1.525751	0.000430	41.442734	4.3
284	804.394830	1.523878	0.000431	73.143793	4.1
285	815.030690	1.588759	0.000429	42.228344	4.0
286	831.774392	1.578419	0.000429	27.438888	3.5
287	817.309055	1.581520	0.000429	29.683786	1.7
288	831.142296	1.581872	0.000429	43.720568	2.1
289	792.092101	1.575705	0.000430	50.702164	2.0
290	818.746847	1.602850	0.000429	58.747299	2.0
291	829.215236	1.681626	0.000428	49.436010	2.1
292	810.453421	1.682888	0.000427	35.997164	4.1
293	805.069617	1.691243	0.000427	70.364196	1.9
294	815.890539	1.685913	0.000427	30.050659	1.8
295	815.521808	1.707979	0.000427	31.626539	1.8
296	803.182366	1.703725	0.000427	38.343514	1.9
297	801.196243	1.710743	0.000427	49.090822	2.1
298	778.123810	1.704696	0.000427	83.714429	4.1
299	781.183962	1.894615	0.000424	39.587443	4.1
300	783.403554	1.891579	0.000424	65.735900	5.5
301	795.176178	1.892213	0.000424	38.267346	3.0
302	800.730190	1.938420	0.000423	25.181453	2.4
303	824.086432	1.938652	0.000423	47.754149	3.1
304	806.523126	1.935059	0.000423	18.241674	2.9
305	778.291685	1.931640	0.000423	25.606450	2.9
306	781.107555	1.931597	0.000423	31.121959	2.3
307	820.176342	1.927255	0.000423	25.307770	2.1
308	794.272436	1.924459	0.000423	21.351118	2.2
309	801.972088	1.922110	0.000423	41.439177	2.2
310	803.970743	1.921550	0.000423	55.877071	2.1
311	801.477181	1.957109	0.000422	21.428240	1.9
312	802.600327	1.956350	0.000422	31.577855	1.9
313	823.165332	1.955087	0.000422	49.446968	1.8
314	821.913351	1.947796	0.000423	30.684472	1.8
315	773.194629	1.955217	0.000422	43.808245	1.9
316	804.452324	1.949069	0.000423	34.293798	1.7
317	780.107097	1.960526	0.000422	49.306957	1.7
318	790.536857	1.963417	0.000422	30.643576	1.7
319	782.129327	1.967975	0.000422	26.932670	1.7
320	790.473128	1.965665	0.000422	54.857274	1.7
321	794.710253	1.964482	0.000422	31.542382	1.7
322	783.281130	1.981811	0.000422	62.678043	1.7
323	822.061316	1.973468	0.000422	47.496423	1.7
324	789.000549	1.992021	0.000422	37.693077	1.7
325	790.859760	2.017053	0.000421	19.353760	1.7
326	774.952480	2.013507	0.000421	19.130916	1.7
327	826.260621	2.013275	0.000421	60.444545	1.7
328	797.094873	2.020969	0.000421	23.456899	1.8
329	794.050825	2.025909	0.000421	18.517142	1.8
330	819.818436	2.024417	0.000421	35.046615	1.7
331	804.588891	2.023860	0.000421	50.302872	1.8
332	807.324099	2.027606	0.000421	20.462938	1.7
333	784.159206	2.022988	0.000421	24.234834	1.7
334	796.834545	2.022573	0.000421	49.601909	1.7
335	788.816700	2.023728	0.000421	33.290589	1.7
336	793.397724	2.017403	0.000421	41.296356	1.7
337	814.873751	2.009754	0.000421	49.194446	1.8
338	806.223249	2.037726	0.000421	34.691944	1.7
339	810.648156	2.029607	0.000421	15.883142	1.7
340	780.908448	2.029222	0.000421	29.802638	1.7
341	788.110654	2.026407	0.000421	29.289177	1.7
342	798.951597	2.020700	0.000421	24.612141	1.7
343	808.753568	2.019615	0.000421	23.665260	1.6
344	803.216375	2.021551	0.000421	16.347967	1.6
345	785.772980	2.020174	0.000421	50.795621	1.7
346	807.549330	2.019485	0.000421	38.549330	1.7
347	800.658482	2.049818	0.000421	35.890279	1.6
348	822.982841	2.058231	0.000421	55.894427	1.6
349	792.913463	2.052936	0.000421	34.379401	1.7
350	792.692894	2.055482	0.000421	33.700612	1.7
351	801.326504	2.058592	0.000421	42.565325	1.7
352	812.065194	2.072377	0.000420	59.799476	1.7
353	787.610000	2.126921	0.000419	33.381592	1.8
354	787.039461	2.135482	0.000419	62.659021	1.7
355	761.337401	2.134648	0.000419	29.980939	1.7
356	764.186734	2.149046	0.000419	49.724253	1.7
357	803.907946	2.156138	0.000419	16.575143	1.7
358	775.287120	2.157604	0.000419	26.304739	1.8
359	802.674630	2.155819	0.000419	23.409906	2.2
360	784.643024	2.156017	0.000419	30.256131	1.7
361	796.274639	2.153242	0.000419	71.460514	1.7
362	793.830587	2.190020	0.000418	43.046090	1.6
363	799.023517	2.210797	0.000418	30.639690	1.7
364	801.456262	2.209042	0.000418	16.309054	1.7
365	795.477256	2.207803	0.000418	41.256054	1.7
366	796.816844	2.207779	0.000418	21.685169	1.7
367	854.272612	2.209182	0.000418	24.399425	1.7
368	819.231023	2.210721	0.000418	32.636066	1.7
369	782.804663	2.209294	0.000418	28.299514	1.7
370	774.492636	2.204934	0.000418	19.074403	1.7
371	817.953203	2.201723	0.000418	48.750672	1.7
372	788.159980	2.198767	0.000418	26.882678	3.0
373	779.087651	2.203158	0.000418	31.025937	1.7
374	784.331721	2.199985	0.000418	41.886166	1.7
375	792.177115	2.198220	0.000418	41.882360	1.7
376	818.547570	2.190791	0.000418	66.137730	1.7
377	787.569722	2.229778	0.000417	32.489998	1.7
378	790.189358	2.234652	0.000417	26.332912	1.8
379	796.004672	2.229149	0.000417	41.780367	2.2
380	804.503318	2.235415	0.000417	41.282731	1.8
381	785.017933	2.230126	0.000417	47.717493	1.8
382	755.680518	2.242792	0.000417	27.387348	1.7
383	765.233645	2.242600	0.000417	25.600107	1.8
384	759.077370	2.240530	0.000417	33.493406	1.8
385	802.832279	2.240224	0.000417	67.572261	1.9
386	800.771741	2.240859	0.000417	33.861840	1.9
387	792.107736	2.251099	0.000417	35.276443	1.9
388	832.006882	2.259968	0.000417	18.527867	1.9
389	775.344536	2.257667	0.000417	28.931146	1.8
390	783.988643	2.255983	0.000417	24.949912	3.5
391	765.721510	2.259978	0.000417	26.905760	4.0
392	775.935200	2.259599	0.000417	28.500182	4.1
393	830.267966	2.263048	0.000417	18.341254	4.1
394	773.613208	2.263515	0.000417	21.322517	3.9
395	774.076359	2.262909	0.000417	23.833173	2.5
396	781.214132	2.259196	0.000417	34.074121	2.6
397	782.856216	2.258390	0.000417	47.513781	2.5
398	782.984253	2.271621	0.000417	39.757135	2.5
399	791.144346	2.267825	0.000417	37.875519	2.6
400	794.866001	2.274326	0.000417	16.949773	2.7
401	827.804906	2.274044	0.000417	30.267531	4.1
402	780.492053	2.272501	0.000417	20.180966	4.3
403	825.746994	2.274816	0.000417	18.698648	4.1
404	760.081929	2.275380	0.000417	24.367846	3.4
405	785.230859	2.274946	0.000417	30.543782	4.2
406	803.338719	2.270060	0.000417	56.839058	4.2
407	776.647886	2.290996	0.000416	13.497926	4.0
408	790.781706	2.287633	0.000416	48.822492	3.9
409	814.580485	2.286510	0.000416	15.029032	3.4
410	799.665779	2.289182	0.000416	27.711716	3.0
411	778.504083	2.289144	0.000416	33.899090	3.0
412	773.508373	2.285940	0.000416	32.658960	2.9
413	808.594030	2.293791	0.000416	36.744675	2.5
414	793.419976	2.302454	0.000416	77.861898	2.4
415	826.393141	2.335911	0.000416	30.195745	3.1
416	800.600780	2.371365	0.000415	38.652591	4.2
417	798.823073	2.365865	0.000415	46.118800	4.0
418	754.592658	2.358329	0.000415	32.367792	4.0
419	754.635801	2.361597	0.000415	36.922678	3.8
420	771.132785	2.355618	0.000415	46.540205	3.7
421	782.290893	2.356954	0.000415	13.457146	3.0
422	784.644210	2.356582	0.000415	23.254921	2.8
423	817.368200	2.355731	0.000415	34.083562	2.8
424	774.562249	2.351424	0.000415	39.231811	2.8
