1:ItNr	2:Metric	3a:Time	3b:StepSize	4:||Gradient||	Time[ms]
0	460158.197203	0.000000	0.000021	92941.285365	176.0
1	296979.481274	0.000000	0.000021	80909.624950	3.1
2	167283.276019	0.000000	0.000021	59761.882488	3.1
3	94739.494767	0.000000	0.000021	40420.714744	3.1
4	71371.435088	0.000000	0.000021	32224.389833	3.1
5	49074.488899	0.000000	0.000021	22938.842322	2.8
6	39769.597258	0.000000	0.000021	17616.359931	2.9
7	34368.197868	0.000000	0.000021	14887.152514	4.0
8	30074.942159	0.000000	0.000021	11983.561705	5.2
9	27239.147600	0.000000	0.000021	10038.841626	5.1
10	24435.880967	0.000000	0.000021	8411.243553	4.8
11	24097.421282	0.000000	0.000021	7886.754217	5.1
12	22265.777315	0.000000	0.000021	6358.880880	5.1
13	22470.228148	0.000000	0.000021	6110.567181	3.9
14	20940.980998	0.000000	0.000021	5712.927740	4.7
15	20434.665915	0.000000	0.000021	5388.307075	4.8
16	19553.891775	0.000000	0.000021	4587.599873	8.3
17	18790.532891	0.000000	0.000021	4548.903413	3.9
18	18568.284121	0.000000	0.000021	4180.095473	3.7
19	18354.878097	0.000000	0.000021	4071.355838	3.4
20	18240.604776	0.000000	0.000021	3708.326867	5.7
21	17458.908144	0.000000	0.000021	3594.476674	5.2
22	17582.687711	0.000000	0.000021	3441.429420	4.2
23	17972.052611	0.000000	0.000021	3338.109039	4.9
24	16666.113593	0.000000	0.000021	2982.872532	5.6
25	16696.088146	0.000000	0.000021	2764.620035	5.5
26	17048.653281	0.000000	0.000021	2905.999898	5.0
27	16608.126166	0.000000	0.000021	2641.860898	5.0
28	16283.644726	0.000000	0.000021	2432.444611	4.1
29	16434.925299	0.000000	0.000021	2332.137258	4.0
30	16325.563959	0.000000	0.000021	2426.811249	3.8
31	16164.433344	0.000000	0.000021	2115.005827	3.8
32	15468.325275	0.000000	0.000021	2133.021778	3.8
33	15663.098945	0.000000	0.000021	1861.768922	3.4
34	16170.483611	0.000000	0.000021	2005.018830	3.4
35	15629.469596	0.000000	0.000021	1577.215507	3.4
36	15456.227373	0.000000	0.000021	1937.423366	3.2
37	15051.925361	0.000000	0.000021	1891.425613	3.2
38	15480.665608	0.000000	0.000021	1626.390423	3.4
39	15118.401565	0.000000	0.000021	1367.149709	5.2
40	15101.034629	0.000000	0.000021	1497.202047	5.4
41	14973.709783	0.000000	0.000021	1491.467279	4.2
42	15464.911977	0.000000	0.000021	1678.313921	4.2
43	15720.274254	0.000000	0.000021	1315.757306	4.3
44	15133.050813	0.000000	0.000021	1137.885796	4.2
45	15522.489241	0.000000	0.000021	1156.989854	4.1
46	15381.026976	0.000000	0.000021	1471.640472	3.9
47	15328.054661	0.000000	0.000021	1224.425057	3.9
48	14951.481352	0.000000	0.000021	1012.297622	3.6
49	15135.793920	0.000000	0.000021	1060.345765	3.5
50	15611.461842	0.000000	0.000021	1000.963230	3.5
51	15030.943875	0.000000	0.000021	994.519452	3.3
52	14930.922380	0.000000	0.000021	915.367894	3.3
53	15234.104894	0.000000	0.000021	922.361446	3.4
54	15494.471910	0.000000	0.000021	713.525947	3.6
55	14786.763444	0.000000	0.000021	912.133384	3.6
56	15178.058088	0.000000	0.000021	823.114424	3.5
57	14958.735697	0.000000	0.000021	885.381120	3.8
58	14749.741947	0.000000	0.000021	986.175516	3.7
59	14334.005172	0.000000	0.000021	1266.695912	3.7
60	14573.926161	0.000000	0.000021	703.586744	3.6
61	15177.678760	0.000000	0.000021	621.096183	3.7
62	14702.688906	0.000000	0.000021	688.845715	3.4
63	14652.390163	0.000000	0.000021	672.567705	3.5
64	14734.902905	0.000000	0.000021	701.260740	3.5
65	14753.216731	0.000000	0.000021	795.532901	3.6
66	14680.345816	0.000000	0.000021	551.950802	3.8
67	14793.254467	0.000000	0.000021	593.449367	4.0
68	14799.510143	0.000000	0.000021	647.593351	5.5
69	14430.083240	0.000000	0.000021	819.209736	4.0
70	15115.771200	0.000000	0.000021	705.918352	5.7
71	14824.279141	0.000000	0.000021	649.304942	5.4
72	14488.793038	0.000000	0.000021	628.742122	5.3
73	14717.691424	0.000000	0.000021	784.996069	4.7
74	14837.989104	0.000000	0.000021	508.880945	4.1
75	14674.864020	0.000000	0.000021	540.461872	4.1
76	14639.778735	0.000000	0.000021	533.151497	3.7
77	14731.232983	0.000000	0.000021	630.357872	3.8
78	14831.042407	0.000000	0.000021	863.649029	3.7
79	14382.039704	0.000000	0.000021	532.806205	3.7
80	14920.322171	0.000000	0.000021	825.283438	3.6
81	14817.761966	0.000000	0.000021	541.174129	3.1
82	14123.562698	0.000000	0.000021	703.435802	3.0
83	14546.561905	0.000000	0.000021	502.904973	3.0
84	14306.654272	0.000000	0.000021	472.260993	3.1
85	14704.524768	0.000000	0.000021	503.110269	5.3
86	14541.785634	0.000000	0.000021	533.791832	5.4
87	14711.457073	0.000000	0.000021	580.291048	5.5
88	14491.811616	0.000000	0.000021	644.851743	5.0
89	14520.988788	0.000000	0.000021	590.627178	4.1
90	14242.391947	0.000000	0.000021	525.222219	5.7
91	14724.101284	0.000000	0.000021	531.884075	5.6
92	15018.402530	0.000000	0.000021	482.000532	5.5
93	14090.886556	0.000000	0.000021	586.516432	5.5
94	14776.943664	0.000000	0.000021	489.498901	5.1
95	14539.023341	0.000000	0.000021	473.971870	4.9
96	14621.122899	0.000000	0.000021	584.248084	4.1
97	14821.962804	0.000000	0.000021	493.449031	4.0
98	14132.586112	0.000000	0.000021	482.552799	3.9
99	14786.397713	0.000000	0.000021	607.589114	3.6
100	14142.402564	0.000000	0.000021	483.143544	3.6
101	14257.962447	0.000000	0.000021	505.572706	3.5
102	14462.328922	0.000000	0.000021	478.442543	3.4
103	14987.317327	0.000000	0.000021	1003.211915	3.4
104	14331.225309	0.000000	0.000021	469.500389	3.2
105	14787.225650	0.000000	0.000021	547.747812	3.3
106	14905.764276	0.000000	0.000021	829.736181	3.3
107	14134.064600	0.000000	0.000021	480.440153	3.5
108	14443.889584	0.000000	0.000021	515.271389	3.6
109	14996.823622	0.000000	0.000021	528.828537	3.5
110	15074.373996	0.000000	0.000021	588.472518	3.5
111	14624.709291	0.000000	0.000021	590.755818	3.5
112	14535.712117	0.000000	0.000021	472.831152	3.5
113	14990.091449	0.000000	0.000021	539.856010	3.6
114	13990.953791	0.000000	0.000021	476.349053	3.6
115	14351.446678	0.000000	0.000021	555.880588	3.6
116	14991.983352	0.000000	0.000021	492.256504	4.9
117	14259.371550	0.000000	0.000021	481.194825	3.9
118	14997.635308	0.000000	0.000021	530.222315	3.5
119	15449.904216	0.000000	0.000021	521.972728	3.3
120	14636.156815	0.000000	0.000021	716.137639	3.3
121	14277.395570	0.000000	0.000021	516.296411	3.2
122	14471.275759	0.000000	0.000021	696.236373	3.2
123	13737.988669	0.000000	0.000021	454.124623	5.1
124	14572.296689	0.000000	0.000021	535.529984	3.8
125	14162.715277	0.000000	0.000021	1079.463587	3.8
126	14317.225703	0.000000	0.000021	688.049340	3.1
127	14692.234355	0.850943	0.000021	513.428545	2.9
128	14384.191905	0.840869	0.000021	478.700291	3.1
129	14594.495873	0.831011	0.000021	528.090753	3.0
130	14733.863019	0.820979	0.000021	467.357416	3.1
131	14606.103722	0.811107	0.000021	480.588309	3.2
132	14213.096582	0.801201	0.000021	579.111717	5.7
133	14138.731034	0.791159	0.000021	471.983828	4.6
134	14554.324101	0.781115	0.000021	628.056451	3.6
135	14467.191177	0.771061	0.000021	540.620839	4.3
136	14250.071126	0.762126	0.000021	744.074552	4.4
137	14954.426681	0.756284	0.000021	555.349871	3.6
138	14254.748550	0.753486	0.000021	738.278565	3.3
139	14601.452410	0.743397	0.000021	512.601556	3.4
140	14458.640589	0.733402	0.000021	735.368245	3.2
141	15108.542280	0.723359	0.000021	593.626828	3.2
142	14352.424305	0.713266	0.000021	482.951781	3.2
143	14541.532805	0.703228	0.000021	625.342563	3.3
144	14027.264239	0.693627	0.000021	449.890938	3.4
145	14544.568184	0.683639	0.000021	569.023412	3.3
146	13801.531505	0.673725	0.000021	495.606040	3.3
147	14175.118216	0.663693	0.000021	472.702706	3.3
148	14514.388352	0.653682	0.000021	508.475042	3.3
149	13992.852324	0.644015	0.000021	489.481236	3.3
150	14186.951549	0.634285	0.000021	480.398808	3.3
151	13778.027778	0.624282	0.000021	494.442995	3.2
152	14367.568917	0.614286	0.000021	897.075831	3.2
153	14820.842232	0.605107	0.000021	535.486556	3.1
154	14295.495155	0.595018	0.000021	554.774795	3.2
155	15115.308635	0.585596	0.000021	771.503778	3.2
156	14347.961708	0.575505	0.000021	693.083071	3.3
157	14488.965003	0.565411	0.000021	528.027624	3.3
158	14148.474979	0.555325	0.000021	483.738595	3.3
159	14104.766352	0.545332	0.000021	544.834619	3.4
160	14823.343112	0.535355	0.000021	793.374969	4.7
161	14103.980165	0.526449	0.000021	461.318412	3.5
162	14090.679760	0.516386	0.000021	441.014036	3.4
163	14240.613601	0.506467	0.000021	473.817681	3.4
164	14418.105438	0.496535	0.000021	567.701231	3.4
165	14513.216708	0.486556	0.000021	638.681481	3.4
166	14475.106462	0.476742	0.000021	479.219956	3.3
167	14386.363405	0.466683	0.000021	473.133226	3.5
168	14526.350655	0.456827	0.000021	582.187570	3.5
169	14140.332681	0.446783	0.000021	502.652948	3.6
170	14341.963431	0.436972	0.000021	465.863022	3.5
171	14142.942028	0.427040	0.000021	464.901651	3.8
172	14791.177281	0.417068	0.000021	501.903265	4.1
173	14186.352527	0.407100	0.000021	536.450121	3.6
174	14286.024516	0.397054	0.000021	485.512137	3.6
175	13984.531225	0.387221	0.000021	529.493374	3.4
176	14776.335541	0.377577	0.000021	584.321072	3.4
177	14206.063706	0.367704	0.000021	524.083680	3.5
178	14378.489157	0.357668	0.000021	542.845180	3.6
179	14384.500292	0.347746	0.000021	459.170693	3.7
180	14492.222541	0.337751	0.000021	472.006523	3.7
181	14148.471826	0.327801	0.000021	513.996427	4.0
182	14616.141589	0.317808	0.000021	708.755765	4.0
183	14091.246564	0.309410	0.000021	503.712679	4.3
184	14164.507787	0.300662	0.000021	572.771454	5.6
185	14386.643429	0.290671	0.000021	602.430512	5.4
186	14253.080108	0.280664	0.000021	485.062997	6.2
187	14377.388837	0.270617	0.000021	679.157445	5.7
188	14362.147742	0.261014	0.000021	455.705344	5.6
189	14473.234696	0.251438	0.000021	677.209600	5.7
190	14565.575542	0.241613	0.000021	516.572432	4.5
191	14254.364544	0.231551	0.000021	476.796546	6.0
192	14146.874604	0.221675	0.000021	499.499891	6.0
193	14509.794468	0.211684	0.000021	685.768387	5.7
194	14337.220595	0.201607	0.000021	528.601881	5.5
195	13856.855661	0.191600	0.000021	575.826529	5.5
196	14433.551151	0.182776	0.000021	488.224651	4.5
197	13713.930568	0.172972	0.000021	551.115323	4.4
198	14143.795750	0.163036	0.000021	627.577701	4.0
199	14632.113179	0.153954	0.000021	473.752246	4.0
200	14507.975055	0.144004	0.000021	501.991230	4.0
201	14080.637217	0.133999	0.000021	492.526737	4.1
202	14152.247378	0.124072	0.000021	469.445079	4.0
203	14200.634976	0.114170	0.000021	462.395173	3.7
204	14159.327585	0.104258	0.000021	519.557254	3.6
205	14503.168554	0.094419	0.000021	510.218577	3.6
206	14017.343105	0.084464	0.000021	499.096878	3.4
207	13599.117468	0.074476	0.000021	513.055896	3.4
208	14102.321286	0.064466	0.000021	559.040873	3.4
209	14698.605532	0.055653	0.000021	481.577678	3.4
210	14223.100089	0.045947	0.000021	508.468458	3.4
211	14544.575870	0.035984	0.000021	550.136561	3.3
212	14417.455651	0.026072	0.000021	686.064092	3.2
213	13552.490699	0.018599	0.000021	537.130940	3.2
214	14100.541647	0.008516	0.000021	508.284784	3.3
215	13572.258886	0.000000	0.000021	697.322194	3.5
216	13842.742675	0.000000	0.000021	463.395151	3.6
217	14401.392367	0.000000	0.000021	476.150597	5.5
218	14305.666397	0.000000	0.000021	461.677972	5.6
219	13777.211466	0.000000	0.000021	494.511402	5.7
220	14070.310985	0.000000	0.000021	478.160949	5.5
221	14253.592980	0.000000	0.000021	531.910686	5.2
222	13889.448504	0.000000	0.000021	469.698434	5.2
223	14114.814890	0.000000	0.000021	475.455580	5.5
224	14319.299535	0.000000	0.000021	493.856166	4.3
225	14326.065546	0.000000	0.000021	701.594903	4.6
226	13802.241656	0.000000	0.000021	518.423734	4.4
227	14585.582671	0.000000	0.000021	591.078130	3.6
228	14309.921808	0.000000	0.000021	542.570379	3.6
229	13647.932153	0.000000	0.000021	561.588909	3.6
230	14115.520131	0.000000	0.000021	620.013663	3.7
231	13870.240454	0.000000	0.000021	724.034359	3.7
232	13620.888711	0.000000	0.000021	620.011364	3.5
233	13934.276343	0.024248	0.000021	669.431407	3.6
234	14049.471192	0.032492	0.000021	550.421931	3.5
235	13915.375074	0.022404	0.000021	526.301557	3.8
236	13845.484029	0.012340	0.000021	538.938060	3.8
237	14584.530087	0.002753	0.000021	632.769133	3.7
238	13859.135575	0.000000	0.000021	570.796062	3.4
239	14348.607316	0.000000	0.000021	571.228959	3.4
240	13881.827798	0.000000	0.000021	714.947719	3.4
241	13698.611341	0.000000	0.000021	829.465891	3.2
242	14043.562977	0.000000	0.000021	870.780562	3.3
243	13717.755239	0.700511	0.000021	524.073197	3.3
244	13721.705732	0.692333	0.000021	468.207342	3.1
245	13687.971562	0.682755	0.000021	554.941043	3.1
246	14244.343728	0.672739	0.000021	464.655950	3.1
247	13952.646770	0.662835	0.000021	440.811428	3.5
248	13934.670973	0.652906	0.000021	478.309779	3.5
249	13882.438659	0.643006	0.000021	590.059716	3.5
250	13910.645419	0.633416	0.000021	619.172768	3.4
251	13775.670967	0.623340	0.000021	642.258750	3.4
252	14169.024553	0.624302	0.000021	522.475143	3.4
253	14060.119321	0.614289	0.000021	492.100818	3.7
254	14202.761907	0.604507	0.000021	492.229156	3.6
255	14297.251140	0.594512	0.000021	516.496218	3.7
256	13821.184504	0.584641	0.000021	497.855536	3.9
257	13484.438724	0.574771	0.000021	497.929063	3.9
258	13833.657167	0.564739	0.000021	625.850637	3.8
259	13933.660219	0.556880	0.000021	470.489130	3.7
260	13997.346108	0.546829	0.000021	519.103085	3.7
261	13781.335011	0.537043	0.000021	590.661190	3.3
262	14112.002159	0.527769	0.000021	566.052954	3.4
263	14210.800587	0.519802	0.000021	688.461809	3.6
264	13955.685961	0.509715	0.000021	592.308540	5.8
265	14111.316748	0.506901	0.000021	547.711380	5.6
266	14052.870989	0.496964	0.000021	498.766742	5.1
267	14069.666265	0.487130	0.000021	540.200013	2.7
268	13928.415163	0.477122	0.000021	499.964037	3.0
269	14152.587164	0.467533	0.000021	536.097628	3.0
270	14314.541725	0.457526	0.000021	597.415752	3.0
271	13772.935997	0.447732	0.000021	447.907017	3.1
272	13760.736989	0.438023	0.000021	475.691402	3.9
273	13860.520783	0.428244	0.000021	454.266837	4.0
274	13499.732018	0.418415	0.000021	526.630350	3.3
275	13515.132104	0.408433	0.000021	477.190430	3.0
276	13928.566156	0.398408	0.000021	499.740112	2.8
277	13580.060225	0.388562	0.000021	541.250168	2.7
278	14133.950690	0.378686	0.000021	460.000996	2.6
279	13683.060042	0.368726	0.000021	848.280357	3.4
280	13658.816358	0.359051	0.000021	509.235924	5.6
281	13728.472639	0.358257	0.000021	702.940770	5.4
282	14686.020122	0.348842	0.000021	541.991523	5.4
283	13865.200162	0.339284	0.000021	566.013710	3.4
284	13942.019860	0.329624	0.000021	545.312484	2.7
285	14589.126724	0.320060	0.000021	696.837015	3.0
286	14169.977442	0.309983	0.000021	606.486362	3.0
287	13770.959940	0.302649	0.000021	488.048913	3.1
288	14170.099473	0.292859	0.000021	564.035649	2.6
289	13652.049206	0.283426	0.000021	620.935229	2.5
290	13976.887167	0.273813	0.000021	480.422303	2.6
291	13739.911871	0.263820	0.000021	466.117678	2.7
292	13928.680676	0.253990	0.000021	477.657563	2.6
293	14232.833559	0.244102	0.000021	490.792138	3.0
294	13211.685545	0.234142	0.000021	431.756371	2.6
295	14082.971051	0.224262	0.000021	534.376688	2.5
296	13824.676093	0.214460	0.000021	489.931023	2.6
297	13679.597328	0.204466	0.000021	465.720520	2.7
298	14047.341823	0.194469	0.000021	577.640206	2.7
299	14031.293646	0.184797	0.000021	482.974983	3.0
300	13131.753443	0.174828	0.000021	482.339665	2.9
301	13679.750194	0.164998	0.000021	652.258416	2.9
302	12970.600764	0.154935	0.000021	478.854753	2.9
303	13874.899032	0.144870	0.000021	536.253068	5.0
304	13838.939666	0.135418	0.000021	725.458953	3.5
305	14319.170188	0.125331	0.000021	496.726878	2.8
306	13628.320749	0.115272	0.000021	609.909438	2.4
307	13879.014198	0.105780	0.000021	486.930522	2.4
308	14049.373129	0.095819	0.000021	609.548568	2.4
309	13510.441457	0.085882	0.000021	862.707804	2.6
310	13692.956717	0.119297	0.000021	463.339026	2.4
311	13850.356264	0.109253	0.000021	712.659317	2.5
312	14008.882227	0.099855	0.000021	548.034333	2.4
313	13531.038918	0.096250	0.000021	451.740772	2.6
314	13433.420895	0.086393	0.000021	510.693472	2.5
315	13677.550559	0.076461	0.000021	685.884956	2.5
316	13668.050657	0.066972	0.000021	530.821167	2.6
317	13810.010454	0.056978	0.000021	487.770909	2.8
318	13643.202990	0.047060	0.000021	501.137059	2.8
319	13775.257881	0.037070	0.000021	667.038872	2.8
320	13797.006675	0.027144	0.000021	603.973866	2.8
321	13865.604535	0.017056	0.000021	738.099458	2.7
322	13536.515899	0.027419	0.000021	525.318085	2.7
323	13754.165603	0.021233	0.000021	573.609605	2.8
324	13515.242803	0.011218	0.000021	631.160573	2.9
325	13611.174809	0.003199	0.000021	840.403907	3.7
326	13785.322944	0.163554	0.000021	441.745494	3.2
327	13527.677039	0.153652	0.000021	585.634130	3.0
328	13868.607166	0.143646	0.000021	539.747750	2.8
329	13479.160058	0.134694	0.000021	472.879247	2.9
330	13124.507239	0.124828	0.000021	434.853459	2.8
331	13690.138873	0.114992	0.000021	446.431259	2.8
332	13462.728004	0.105115	0.000021	533.889358	2.9
333	13557.919575	0.095230	0.000021	446.866646	3.0
334	13900.401680	0.085360	0.000021	628.387058	3.1
335	13822.796233	0.075508	0.000021	488.616816	3.1
336	13882.473795	0.065501	0.000021	667.146058	3.1
337	13640.539027	0.055657	0.000021	466.603634	6.4
338	13624.084686	0.045709	0.000021	534.567304	5.6
339	13263.165152	0.035780	0.000021	439.954337	5.5
340	13669.818605	0.025861	0.000021	442.216688	3.4
341	13909.013663	0.015991	0.000021	577.456511	2.6
342	13504.606787	0.006090	0.000021	522.557029	3.1
343	13219.525436	0.000000	0.000021	462.859761	5.5
344	13807.816862	0.000000	0.000021	482.656187	5.1
345	13262.919925	0.000000	0.000021	501.145897	2.6
346	13545.549006	0.000000	0.000021	462.739406	2.5
347	13897.453278	0.000000	0.000021	647.055453	2.6
348	13451.842936	0.000000	0.000021	579.893566	3.3
349	13649.152555	0.000000	0.000021	453.534470	3.2
350	13848.978563	0.000000	0.000021	470.662045	3.3
351	13392.925062	0.000000	0.000021	619.320048	3.4
352	13735.586306	0.000000	0.000021	509.276740	5.5
353	13262.141509	0.000000	0.000021	501.093818	5.1
354	13510.725427	0.000000	0.000021	463.909863	5.4
355	13624.728855	0.000000	0.000021	492.342427	3.1
356	14042.892511	0.000000	0.000021	477.321858	3.0
357	13659.688043	0.000000	0.000021	658.097798	3.0
358	13372.123528	0.000000	0.000021	509.055885	3.2
359	13524.257807	0.000000	0.000021	532.537620	3.2
360	13375.870966	0.000000	0.000021	455.467698	3.2
361	13561.798991	0.000000	0.000021	469.905709	3.5
362	13384.580551	0.000000	0.000021	495.052465	3.5
363	13701.482861	0.000000	0.000021	477.868009	3.5
364	13514.277773	0.000000	0.000021	500.909447	3.4
365	13766.541029	0.000000	0.000021	580.699798	3.4
366	13512.786704	0.000000	0.000021	514.644585	3.5
367	13575.396458	0.000000	0.000021	469.745576	3.5
368	13345.762888	0.000000	0.000021	574.048512	3.5
369	13740.538008	0.000000	0.000021	599.318494	3.6
370	13719.299139	0.000000	0.000021	711.665518	3.6
371	13504.300535	0.000000	0.000021	480.197934	3.7
372	13755.292231	0.000000	0.000021	511.887215	3.7
373	13716.285728	0.000000	0.000021	487.056294	5.4
374	13571.704944	0.000000	0.000021	490.665480	5.5
375	13622.079797	0.000000	0.000021	477.572772	5.3
376	13976.156288	0.000000	0.000021	511.287902	4.9
377	13541.534020	0.000000	0.000021	519.522704	5.0
378	13893.346222	0.000000	0.000021	647.674226	4.0
379	13197.107196	0.000000	0.000021	434.827740	3.9
380	13438.123041	0.000000	0.000021	469.442354	3.8
381	13343.028957	0.000000	0.000021	625.032179	3.5
382	13151.876706	0.000000	0.000021	444.053276	3.6
383	13386.787326	0.000000	0.000021	597.103616	3.8
384	13455.049350	0.000000	0.000021	494.313259	5.9
385	13310.766895	0.000000	0.000021	450.138494	5.1
386	14010.447139	0.000000	0.000021	717.564135	2.7
387	13291.501137	0.000000	0.000021	542.687417	2.7
388	13440.744538	0.000000	0.000021	568.621381	2.8
389	13769.457833	0.000000	0.000021	477.644982	5.5
390	13059.862204	0.000000	0.000021	540.000203	5.4
391	13681.864740	0.000000	0.000021	560.229736	5.3
392	13831.291158	0.000000	0.000021	469.125921	5.2
393	13498.320719	0.000000	0.000021	521.797797	5.3
394	13927.110647	0.000000	0.000021	704.616472	5.5
395	13272.045150	0.000000	0.000021	592.892593	5.6
396	12899.683356	0.000000	0.000021	480.872343	4.5
397	12787.700620	0.000000	0.000021	571.050204	5.6
398	13466.509705	0.000000	0.000021	485.600128	5.3
