1:ItNr	2:Metric	3a:Time	3b:StepSize	4:||Gradient||	Time[ms]
0	45102.622442	0.000000	0.000781	2358.781569	225.0
1	39990.548648	0.000000	0.000781	2388.724845	1.5
2	34712.879209	0.000000	0.000781	2388.536355	1.4
3	30712.360995	0.000000	0.000781	2675.031907	1.4
4	25874.491687	0.000000	0.000781	2729.912470	1.5
5	19941.524947	0.000000	0.000781	2930.319638	1.5
6	13239.455073	0.000000	0.000781	2680.142152	1.5
7	7897.642332	0.000000	0.000781	2146.149232	1.5
8	4935.908113	0.000000	0.000781	1423.702727	1.5
9	3632.760317	0.000000	0.000781	868.245500	1.5
10	3179.962516	0.000000	0.000781	482.719691	4.6
11	2982.877044	0.000000	0.000781	319.954630	1.6
12	2814.869800	0.000000	0.000781	249.277284	1.6
13	2897.987634	0.000000	0.000781	196.000356	1.6
14	2611.730814	0.000000	0.000781	153.285103	1.6
15	2851.572813	0.000000	0.000781	130.354292	1.8
16	2647.028178	0.000000	0.000781	99.124072	1.7
17	2845.114077	0.000000	0.000781	153.797122	1.7
18	2656.117164	0.000000	0.000781	134.187889	1.6
19	2681.209126	0.000000	0.000781	89.486535	1.7
20	2576.709376	0.000000	0.000781	112.482272	1.7
21	2624.064398	0.000000	0.000781	121.178232	1.7
22	2725.252891	0.000000	0.000781	91.691350	1.7
23	2840.267205	0.000000	0.000781	82.958178	1.9
24	2824.406738	0.000000	0.000781	106.985533	2.0
25	2582.971372	0.000000	0.000781	93.498349	2.2
26	2475.242548	0.000000	0.000781	63.655894	2.5
27	2671.947506	0.000000	0.000781	93.916349	2.3
28	2675.271754	0.000000	0.000781	55.212834	2.2
29	2609.579353	0.000000	0.000781	103.253039	2.2
30	2611.718399	0.018901	0.000780	98.937894	2.3
31	2621.161551	0.004369	0.000781	92.115118	2.3
32	2602.127937	0.163110	0.000775	67.943107	2.4
33	2446.984170	0.149126	0.000775	48.947511	3.1
34	2696.970868	0.162947	0.000775	71.976325	1.8
35	2563.523901	0.168777	0.000775	73.350025	1.8
36	2601.074087	0.184536	0.000774	113.988765	1.8
37	2664.105349	0.474466	0.000764	79.242866	1.9
38	2703.966286	0.460825	0.000764	109.567884	2.1
39	2617.070801	0.447740	0.000764	134.717272	4.4
40	2447.516621	1.213171	0.000738	41.704547	2.2
41	2664.098897	1.326039	0.000734	89.736065	1.9
42	2599.354487	1.318423	0.000735	75.296083	1.9
43	2676.524783	1.317970	0.000735	100.017305	2.0
44	2751.515936	1.319766	0.000735	176.730573	2.1
45	2594.193897	2.296967	0.000704	116.434572	2.4
46	2626.056660	3.296639	0.000675	33.733435	2.1
47	2618.161308	3.310159	0.000674	72.425877	2.2
48	2676.371887	3.301602	0.000675	55.939515	4.5
49	2559.191825	3.324370	0.000674	55.965885	4.1
50	2602.483223	3.326055	0.000674	44.800623	2.0
51	2463.463602	3.316022	0.000674	65.561453	2.3
52	2562.389226	3.317491	0.000674	50.681512	2.3
53	2721.764438	3.310447	0.000674	78.623227	2.3
54	2619.216041	3.297284	0.000675	29.931647	2.3
55	2534.051181	3.288455	0.000675	55.790948	2.1
56	2430.800553	3.287160	0.000675	62.575873	1.9
57	2482.253154	3.274392	0.000675	52.400799	1.8
58	2454.533691	3.262935	0.000676	65.708724	1.9
59	2563.332370	3.276148	0.000675	53.690906	2.0
60	2574.831179	3.263346	0.000676	34.250491	3.2
61	2667.879558	3.254162	0.000676	100.661601	1.8
62	2578.073373	3.251837	0.000676	46.736293	1.8
63	2573.391391	3.312069	0.000674	62.617619	1.8
64	2520.073494	3.311460	0.000674	55.119118	1.9
65	2501.627479	3.298699	0.000675	96.777200	1.9
66	2739.952858	3.325579	0.000674	86.043183	1.9
67	2463.003638	3.697128	0.000664	45.004604	1.9
68	2576.899791	3.689411	0.000664	104.384871	1.9
69	2581.495832	3.695153	0.000664	79.125157	1.9
70	2574.694071	3.851304	0.000660	42.523838	1.9
71	2596.678730	3.840435	0.000660	55.291287	1.8
72	2501.339627	3.845297	0.000660	47.791047	1.8
73	2725.585647	3.834673	0.000660	98.582229	1.9
74	2719.010207	3.823000	0.000661	103.844648	1.8
75	2630.244725	3.824893	0.000660	84.669686	3.0
76	2459.182075	3.862111	0.000659	42.369233	4.5
77	2555.180175	3.849518	0.000660	45.103733	2.6
78	2614.436913	3.854839	0.000660	57.781639	2.0
79	2523.353895	3.857253	0.000660	56.241982	2.4
80	2671.154527	3.854966	0.000660	48.784838	2.3
81	2594.259023	3.845325	0.000660	39.491020	2.3
82	2611.139859	3.845284	0.000660	52.641639	2.3
83	2539.181645	3.847114	0.000660	47.681067	1.8
84	2644.687541	3.866701	0.000659	30.925157	1.8
85	2573.253074	3.864834	0.000659	76.168831	1.9
86	2626.876555	3.866150	0.000659	90.954267	2.1
87	2455.881597	4.157577	0.000652	73.959967	1.8
88	2583.823147	4.277868	0.000649	68.373359	1.9
89	2563.842672	4.265571	0.000649	53.276818	1.9
90	2526.831455	4.295579	0.000648	88.208641	1.9
91	2597.826505	4.294681	0.000648	69.499315	2.0
92	2637.238537	4.330795	0.000647	67.650650	1.9
93	2575.511357	4.346158	0.000647	51.172755	2.0
94	2515.894847	4.380634	0.000646	44.412692	1.9
95	2580.945261	4.369412	0.000646	70.619818	1.9
96	2514.553460	4.380364	0.000646	53.249587	1.9
97	2723.137765	4.408026	0.000645	69.402973	1.9
98	2598.074114	4.401256	0.000645	36.578502	1.9
99	2729.245817	4.403838	0.000645	40.272788	1.8
100	2649.007962	4.398811	0.000646	62.595849	1.8
101	2712.689811	4.388118	0.000646	124.535155	1.8
102	2485.098180	4.373722	0.000646	55.581431	1.8
103	2584.538745	4.727509	0.000637	68.793076	1.8
104	2544.884298	4.715412	0.000638	32.170731	3.5
105	2788.475163	4.721827	0.000637	83.950533	4.5
106	2528.040699	4.714744	0.000638	70.889802	4.4
107	2541.294451	4.867779	0.000634	62.652846	4.4
108	2650.760228	4.969789	0.000631	42.036439	4.4
109	2704.761752	4.985052	0.000631	137.110662	4.3
110	2761.750404	5.036514	0.000630	36.960789	4.4
111	2656.910507	5.050287	0.000629	48.645049	3.9
112	2553.652904	5.040985	0.000630	37.383985	4.2
113	2542.594454	5.031714	0.000630	86.115154	4.0
114	2597.436664	5.021265	0.000630	96.630874	3.7
115	2449.855111	5.583581	0.000617	76.222509	3.6
116	2630.933891	5.593977	0.000617	58.241665	3.2
117	2606.794618	5.586362	0.000617	69.130546	3.0
118	2610.181891	5.579218	0.000617	55.254943	3.0
119	2464.793015	5.574163	0.000617	60.654149	3.0
120	2508.101007	5.587242	0.000617	54.940679	2.5
121	2649.662585	5.613616	0.000616	73.534607	2.5
122	2615.139646	5.602551	0.000616	114.040831	2.5
123	2616.411537	5.648667	0.000615	75.001226	2.3
124	2531.553934	5.789212	0.000612	66.442776	2.2
125	2531.432055	5.775251	0.000612	28.507227	2.3
126	2677.192469	5.776077	0.000612	38.626008	2.2
127	2599.865439	5.770616	0.000612	96.104362	2.4
128	2675.352916	5.761703	0.000613	63.371722	4.5
129	2709.799479	5.978297	0.000608	52.848159	4.1
130	2902.925116	5.976553	0.000608	55.823384	4.3
131	2759.755440	5.970999	0.000608	101.909189	4.2
132	2575.477090	6.112045	0.000605	58.000621	3.8
133	2657.986423	6.255295	0.000602	35.869714	3.1
134	2626.778040	6.244835	0.000602	35.955621	3.1
135	2674.466154	6.245407	0.000602	56.291986	3.1
136	2817.030204	6.243308	0.000602	72.571303	2.4
137	2599.035821	6.231272	0.000602	48.937888	2.4
138	2693.241750	6.224196	0.000602	63.063125	2.4
139	2541.718925	6.261864	0.000601	44.083466	2.5
140	2530.723865	6.254995	0.000602	55.094785	2.4
141	2643.515044	6.256549	0.000602	31.214451	2.4
142	2562.500069	6.254096	0.000602	58.561634	2.5
143	2489.980320	6.245722	0.000602	98.847101	2.4
144	2633.522936	6.232810	0.000602	88.580883	1.9
145	2481.237957	6.252252	0.000602	45.426962	1.9
146	2408.875177	6.279925	0.000601	93.879132	1.9
147	2631.418410	6.275932	0.000601	71.483249	1.9
148	2522.512702	6.611579	0.000594	48.151024	1.9
149	2574.330280	6.666605	0.000593	108.734282	1.9
150	2550.632328	6.821342	0.000589	111.960519	1.9
151	2583.680618	7.780523	0.000570	54.661930	1.8
152	2609.308915	7.859175	0.000568	47.930098	1.9
153	2621.542201	7.848150	0.000568	52.395806	1.8
154	2607.794700	7.862014	0.000568	81.961527	1.9
155	2590.856291	7.903385	0.000567	129.664336	1.9
156	2564.062378	8.508491	0.000556	45.328981	1.8
157	2566.451193	8.663906	0.000553	102.018496	1.8
158	2555.333331	8.759776	0.000551	163.223612	1.9
159	2594.465147	9.756482	0.000533	56.928732	1.9
160	2430.786544	9.742903	0.000533	26.597153	2.0
161	2586.507939	9.737890	0.000533	64.143245	2.0
162	2496.656469	9.733878	0.000533	31.933846	2.1
163	2708.227826	9.723991	0.000534	28.441719	2.1
164	2542.222614	9.720578	0.000534	85.534689	2.1
165	2679.275952	9.713196	0.000534	81.414951	1.8
166	2682.024852	9.749284	0.000533	44.387448	1.9
167	2502.739761	9.740589	0.000533	71.464887	1.9
168	2569.385510	9.751621	0.000533	80.257037	1.8
169	2680.832041	9.767917	0.000533	99.201803	1.9
170	2540.094592	10.297057	0.000524	107.471741	1.9
171	2470.481490	10.282765	0.000524	68.150138	1.9
172	2469.501359	10.283147	0.000524	71.799458	1.9
173	2675.722311	10.315190	0.000524	72.746539	1.9
174	2662.369763	10.467616	0.000521	46.250354	1.9
175	2542.286706	10.470562	0.000521	38.555411	2.0
176	2411.387449	10.464460	0.000521	113.205724	1.8
177	2671.730762	10.451195	0.000521	91.433786	1.9
178	2609.936969	10.436661	0.000522	48.661867	1.9
179	2593.070332	10.427750	0.000522	77.539825	1.8
180	2547.588266	10.418609	0.000522	48.683867	1.8
181	2391.858243	10.477924	0.000521	54.063024	5.5
182	2555.980692	10.486011	0.000521	65.899666	1.8
183	2600.514961	10.477231	0.000521	54.319788	1.8
184	2607.416390	10.500887	0.000520	63.889898	2.1
185	2517.159080	10.487957	0.000521	49.672616	2.3
186	2649.297413	10.475768	0.000521	105.965387	2.8
187	2546.030300	10.533059	0.000520	87.652176	2.3
188	2536.526835	10.519005	0.000520	50.651464	2.2
189	2468.892038	10.545229	0.000520	80.125256	2.3
190	2737.560454	10.550499	0.000520	52.600503	2.4
191	2493.642095	10.545675	0.000520	78.908883	2.5
192	2545.053174	10.593283	0.000519	71.169882	2.2
193	2354.566907	10.589529	0.000519	71.843688	1.9
194	2564.305739	10.683989	0.000517	43.973734	1.9
195	2622.018489	10.673204	0.000518	33.396057	1.9
196	2828.571904	10.664308	0.000518	103.373799	2.0
197	2557.227053	10.671711	0.000518	30.507566	2.0
198	2446.032547	10.689647	0.000517	33.626362	1.8
199	2589.885918	10.689698	0.000517	32.646873	1.7
200	2603.937827	10.687222	0.000517	61.547120	1.8
201	2678.634197	10.683783	0.000517	60.070660	1.8
202	2549.435048	10.672239	0.000518	47.158067	1.9
203	2516.908535	10.665015	0.000518	64.842784	1.9
204	2467.839377	10.659259	0.000518	71.329877	1.8
205	2708.386853	10.647997	0.000518	71.039918	1.9
206	2660.883310	10.674411	0.000518	37.348158	2.1
207	2617.362074	10.673486	0.000518	63.920021	1.8
208	2438.224636	10.663396	0.000518	47.907478	1.9
209	2601.029195	10.679715	0.000518	30.297828	1.9
210	2613.508442	10.682730	0.000518	96.907457	1.9
211	2618.449915	10.696464	0.000517	56.303397	1.9
212	2650.228523	10.695153	0.000517	34.643149	1.8
213	2561.234581	10.699828	0.000517	43.453622	1.8
214	2482.467606	10.694556	0.000517	114.214794	1.7
215	2496.598267	10.680917	0.000518	41.264856	1.8
216	2542.102528	10.668562	0.000518	52.146604	1.8
217	2453.525337	10.661114	0.000518	55.521020	1.8
218	2551.805737	10.650340	0.000518	48.350934	2.1
219	2543.215631	10.647217	0.000518	50.945414	1.9
220	2778.958092	10.648726	0.000518	114.617201	1.9
221	2606.618408	10.819911	0.000515	108.292146	1.8
222	2382.009713	10.805366	0.000516	33.021642	1.8
223	2396.186774	10.793533	0.000516	68.166632	1.8
224	2460.119543	10.811444	0.000515	43.943939	2.0
225	2640.784636	10.803301	0.000516	41.049208	1.8
226	2526.981014	10.806957	0.000515	80.427299	1.8
227	2367.459253	10.803791	0.000516	53.219825	1.8
228	2557.150736	10.839782	0.000515	49.740773	1.8
229	2626.618514	10.827984	0.000515	36.405719	1.8
230	2528.354241	10.822914	0.000515	45.809719	1.8
231	2424.471287	10.816750	0.000515	60.626487	1.8
232	2522.425435	10.810387	0.000515	41.018626	1.9
233	2627.274657	10.802717	0.000516	33.203270	1.8
234	2580.119597	10.801641	0.000516	38.029342	1.9
235	2349.976537	10.799834	0.000516	36.368305	1.9
236	2571.091377	10.799255	0.000516	90.491648	1.9
237	2512.291291	10.796027	0.000516	85.295807	2.0
238	2492.784388	10.781595	0.000516	92.078968	2.0
239	2437.269452	11.304707	0.000508	76.266492	2.0
240	2653.315187	11.302748	0.000508	43.424611	1.9
241	2557.229230	11.339777	0.000507	39.661427	1.8
242	2608.187544	11.341882	0.000507	61.512226	1.8
243	2642.230347	11.337980	0.000507	80.090222	1.8
244	2482.731399	11.335076	0.000507	98.298365	1.9
245	2493.469962	11.734585	0.000501	46.594109	1.8
246	2510.942078	11.723577	0.000501	27.748484	1.8
247	2502.272417	11.716470	0.000501	50.748112	1.9
248	2465.077477	11.713532	0.000501	65.040846	1.8
249	2603.643271	11.721943	0.000501	72.062276	1.9
250	2392.522205	11.739820	0.000501	35.991959	1.8
251	2551.297131	11.761899	0.000500	81.845831	1.9
252	2471.016754	11.750050	0.000501	67.026833	2.0
253	2442.353573	11.865477	0.000499	44.925383	2.0
254	2753.632552	11.868615	0.000499	28.300695	2.1
255	2510.983716	11.866863	0.000499	39.032012	2.0
256	2501.485310	11.860035	0.000499	48.374900	1.9
257	2476.665603	11.859315	0.000499	36.945993	1.8
258	2316.664492	11.850659	0.000499	86.645093	1.8
259	2564.042674	11.842061	0.000499	62.735809	1.8
260	2488.756355	11.875899	0.000499	28.935731	1.9
261	2574.725750	11.866328	0.000499	27.896569	2.1
262	2310.457249	11.861218	0.000499	77.553575	4.5
263	2439.198356	11.859232	0.000499	76.258769	4.4
264	2481.740348	12.031054	0.000496	66.960530	4.5
265	2399.283511	12.017814	0.000497	89.222088	4.4
266	2515.589520	12.278393	0.000493	64.271825	3.7
267	2514.859590	12.331342	0.000492	38.331683	2.9
268	2709.986249	12.334351	0.000492	57.734622	2.8
269	2655.699291	12.333490	0.000492	100.579651	2.8
270	2647.391062	12.321312	0.000492	45.768971	2.8
271	2445.922455	12.405607	0.000491	63.146378	2.9
272	2424.749557	12.395365	0.000491	23.082858	2.9
273	2611.406275	12.394685	0.000491	114.763301	2.9
274	2456.015465	12.388004	0.000491	78.961070	4.3
275	2557.434716	13.135284	0.000480	66.968019	3.1
276	2719.798168	13.121305	0.000481	38.215173	3.3
277	2487.488975	13.127357	0.000480	24.674997	3.1
278	2504.352627	13.122854	0.000481	31.364488	3.2
279	2742.276851	13.121982	0.000481	51.646378	2.7
280	2566.341667	13.131437	0.000480	57.878431	2.4
281	2512.580456	13.143319	0.000480	26.608824	2.4
282	2383.558570	13.140838	0.000480	45.647652	4.2
283	2528.141446	13.134058	0.000480	95.947465	4.6
284	2650.665315	13.152492	0.000480	40.845458	4.8
285	2626.666868	13.144854	0.000480	51.433669	4.6
286	2488.720257	13.136271	0.000480	62.539321	4.4
287	2586.957989	13.123963	0.000480	73.077002	3.7
288	2456.075221	13.119395	0.000481	27.750491	3.5
289	2370.442058	13.120971	0.000481	83.521810	4.3
290	2537.601804	13.120179	0.000481	71.597313	4.7
291	2482.388914	13.106649	0.000481	28.897428	4.2
292	2502.569493	13.111313	0.000481	40.503465	3.3
293	2601.876147	13.108563	0.000481	94.362764	3.2
294	2474.505003	13.103207	0.000481	65.926101	3.2
295	2544.801761	13.191017	0.000480	37.508432	2.8
296	2465.171026	13.198855	0.000479	42.397574	2.7
297	2616.911385	13.208715	0.000479	29.118285	2.7
298	2583.283196	13.210848	0.000479	51.244281	2.6
299	2430.239600	13.213850	0.000479	79.014528	2.3
300	2473.911416	13.295187	0.000478	69.365339	2.3
301	2560.073108	13.368628	0.000477	89.763000	2.3
302	2702.515072	13.538035	0.000475	49.051606	2.3
303	2642.355665	13.528221	0.000475	37.357111	2.3
304	2584.164990	13.528742	0.000475	26.848082	2.3
305	2492.121419	13.526258	0.000475	62.249273	2.3
306	2553.590362	13.526472	0.000475	42.941716	2.3
307	2551.695228	13.518824	0.000475	43.824870	2.3
308	2527.413184	13.519827	0.000475	38.303160	2.2
309	2518.878336	13.517949	0.000475	72.830361	2.2
310	2510.953814	13.526806	0.000475	46.996919	2.2
311	2474.044915	13.518188	0.000475	77.080435	2.1
312	2466.243774	13.510772	0.000475	54.943973	1.9
313	2592.472475	13.589906	0.000474	28.772290	1.9
314	2401.082521	13.591614	0.000474	26.057847	1.9
315	2582.944891	13.590333	0.000474	80.803474	1.9
316	2667.555904	13.587011	0.000474	93.831787	1.9
317	2363.300145	14.041069	0.000468	77.546873	1.9
318	2353.728014	14.068465	0.000468	24.452352	1.9
319	2505.978226	14.076308	0.000467	65.261450	1.9
320	2545.886762	14.067509	0.000468	115.452309	1.9
321	2560.388281	14.290700	0.000465	26.430105	1.8
322	2534.428517	14.295755	0.000465	101.660010	1.9
323	2419.976529	14.290764	0.000465	47.112349	1.8
324	2575.485718	14.300471	0.000464	58.023921	1.9
325	2440.272305	14.300149	0.000464	47.349326	1.9
326	2404.562204	14.293157	0.000465	65.914255	1.9
327	2509.369310	14.287363	0.000465	37.409626	1.8
328	2505.480094	14.293768	0.000465	37.839080	2.1
329	2521.497795	14.287327	0.000465	46.984457	2.0
330	2428.496497	14.293271	0.000465	29.772802	2.0
331	2605.785591	14.285563	0.000465	84.673280	2.1
332	2529.581014	14.280735	0.000465	49.780249	2.0
333	2425.311889	14.280267	0.000465	83.436372	1.8
334	2364.136686	14.362499	0.000464	87.162673	1.8
335	2531.260710	14.855133	0.000457	30.485970	1.8
336	2635.094623	14.844141	0.000457	50.021544	1.9
337	2367.426363	14.843961	0.000457	81.242875	1.9
338	2458.776785	14.832997	0.000458	38.104218	2.2
339	2497.490112	14.865507	0.000457	69.058891	1.9
340	2719.018990	14.865118	0.000457	140.199274	1.9
341	2436.825134	14.963122	0.000456	27.156650	1.9
342	2333.081450	15.009953	0.000455	20.147795	1.9
343	2435.821366	15.006729	0.000455	36.937699	1.9
344	2461.587442	15.001648	0.000455	40.030501	2.0
345	2318.230271	15.000700	0.000455	37.711353	1.9
346	2545.979447	14.992107	0.000456	53.617937	1.8
347	2617.022470	14.990280	0.000456	22.911822	1.9
348	2665.775111	14.983814	0.000456	50.835055	1.8
349	2496.614932	14.986919	0.000456	88.704032	1.8
350	2285.363504	15.136459	0.000454	88.282552	2.1
351	2521.333491	15.540861	0.000449	33.933442	1.8
352	2471.899441	15.578681	0.000448	28.929203	1.8
353	2425.659868	15.576090	0.000448	23.703796	1.8
354	2636.102736	15.572665	0.000448	42.488178	1.8
355	2388.344389	15.570745	0.000448	56.193169	1.8
356	2565.415675	15.571965	0.000448	79.432667	3.8
357	2483.892658	15.603765	0.000448	77.938056	2.5
358	2575.042994	15.595859	0.000448	102.764594	2.3
359	2497.210844	15.581486	0.000448	30.291913	2.3
360	2404.698380	15.621006	0.000448	67.865528	2.4
361	2565.476460	15.611151	0.000448	67.965054	2.0
362	2547.371967	15.600200	0.000448	37.667861	1.8
363	2525.939595	15.590993	0.000448	23.648571	1.9
364	2472.000558	15.587036	0.000448	81.039276	1.8
365	2473.481979	15.593050	0.000448	42.332332	1.8
366	2431.052110	15.588471	0.000448	74.746821	1.9
367	2469.693122	15.577559	0.000448	85.843737	2.3
368	2512.130645	15.567653	0.000448	36.481596	2.3
369	2484.629204	15.591051	0.000448	41.222231	2.5
370	2640.068106	15.584194	0.000448	39.907579	2.4
371	2566.439647	15.575266	0.000448	50.411886	2.4
372	2472.462885	15.572502	0.000448	45.502173	2.1
373	2436.654665	15.566163	0.000448	70.534212	4.4
374	2566.694462	15.614976	0.000448	21.235832	4.6
375	2467.898490	15.615436	0.000448	92.175860	4.5
376	2474.520216	15.613204	0.000448	78.842597	4.2
377	2503.126776	15.692532	0.000447	24.189813	3.0
378	2534.343899	15.683437	0.000447	69.287404	4.5
379	2511.273765	15.676713	0.000447	51.222878	4.3
380	2587.949601	15.738072	0.000446	50.566379	3.8
381	2456.237999	15.728756	0.000446	114.398738	2.2
382	2597.311422	15.717342	0.000447	104.064672	2.1
383	2483.874349	16.441777	0.000438	60.824255	1.9
384	2464.224082	16.749116	0.000434	27.247063	1.9
385	2489.215295	16.751432	0.000434	105.237229	1.9
386	2476.045398	16.772228	0.000434	46.923782	2.1
387	2613.049520	16.820908	0.000434	80.402753	2.0
388	2460.786056	16.825582	0.000433	45.890731	1.8
389	2453.083462	16.872088	0.000433	72.824807	1.9
390	2432.392051	16.917933	0.000432	33.427287	1.9
391	2519.397595	16.942026	0.000432	50.427082	1.9
392	2549.040878	16.939263	0.000432	63.419577	1.9
393	2420.739795	16.940567	0.000432	42.876219	1.8
394	2529.246084	16.931053	0.000432	54.449260	1.9
395	2479.020913	16.942533	0.000432	86.574730	1.8
396	2570.245344	17.047358	0.000431	54.057509	1.9
397	2450.339099	17.136105	0.000430	65.010068	1.9
398	2416.942636	17.129587	0.000430	73.647487	1.8
399	2497.724351	17.128367	0.000430	62.823681	1.9
400	2299.454300	17.115886	0.000430	83.700581	1.8
401	2447.549355	17.292894	0.000428	58.598309	1.8
402	2491.428257	17.321751	0.000428	24.004733	1.8
403	2571.844151	17.324215	0.000428	51.083352	1.8
404	2549.204496	17.322015	0.000428	36.444014	1.8
405	2452.323470	17.337016	0.000428	80.078919	1.8
406	2574.215187	17.336663	0.000428	39.300676	1.8
407	2501.692798	17.334249	0.000428	36.762163	1.8
408	2500.033358	17.327320	0.000428	40.106633	1.8
409	2681.658034	17.325338	0.000428	81.134211	1.9
410	2414.188928	17.360290	0.000427	79.472867	1.8
