1:ItNr	2:Metric	3a:Time	3b:StepSize	4:||Gradient||	Time[ms]
0	200330.896923	0.000000	0.000083	22325.756756	250.1
1	162257.343643	0.000000	0.000083	19365.239539	1.6
2	133936.510317	0.000000	0.000083	15307.313277	1.7
3	111674.107498	0.000000	0.000083	12704.705143	1.6
4	101154.472775	0.000000	0.000083	10968.102893	1.7
5	91916.697110	0.000000	0.000083	10168.827511	1.7
6	81352.841367	0.000000	0.000083	9370.278205	1.7
7	77206.883295	0.000000	0.000083	8954.536085	1.7
8	69896.875123	0.000000	0.000083	7516.054494	1.7
9	65024.076937	0.000000	0.000083	7650.698736	1.8
10	61143.419535	0.000000	0.000083	7098.403575	2.2
11	56080.926115	0.000000	0.000083	7475.843558	1.8
12	51013.505124	0.000000	0.000083	7092.150989	1.8
13	48149.954552	0.000000	0.000083	6599.097716	1.8
14	43401.458390	0.000000	0.000083	6301.538920	1.8
15	39509.235648	0.000000	0.000083	6110.775527	2.0
16	38088.645360	0.000000	0.000083	6470.147198	1.9
17	34412.769120	0.000000	0.000083	6134.174554	1.9
18	29634.855928	0.000000	0.000083	6008.162115	1.8
19	27634.517799	0.000000	0.000083	5971.809537	1.9
20	24778.946808	0.000000	0.000083	5562.196797	2.1
21	21898.514359	0.000000	0.000083	5244.857107	2.1
22	19558.721708	0.000000	0.000083	4784.736303	2.1
23	17875.751573	0.000000	0.000083	4497.077163	2.1
24	16215.909880	0.000000	0.000083	4145.278793	2.1
25	15268.084695	0.000000	0.000083	4091.468485	2.3
26	13475.083671	0.000000	0.000083	3600.779035	2.2
27	12373.757263	0.000000	0.000083	3232.356687	2.2
28	11695.289216	0.000000	0.000083	2878.544322	2.3
29	11387.586158	0.000000	0.000083	2931.969239	2.4
30	10570.470924	0.000000	0.000083	2458.807453	2.6
31	9787.032295	0.000000	0.000083	2134.219417	5.0
32	9564.274583	0.000000	0.000083	1854.817396	4.7
33	9130.342920	0.000000	0.000083	1730.272960	4.6
34	8831.812228	0.000000	0.000083	1705.559203	3.7
35	8897.008210	0.000000	0.000083	1504.283080	3.5
36	8525.178192	0.000000	0.000083	1303.248034	3.6
37	8600.083848	0.000000	0.000083	1265.533051	5.3
38	8293.661156	0.000000	0.000083	904.951765	5.5
39	8434.392276	0.000000	0.000083	969.664139	4.0
40	8291.496011	0.000000	0.000083	1030.667768	4.1
41	8335.946891	0.000000	0.000083	888.034202	3.9
42	8198.988217	0.000000	0.000083	858.279168	3.3
43	8020.451540	0.000000	0.000083	641.710697	3.2
44	8061.382046	0.000000	0.000083	758.678427	3.2
45	7907.081862	0.000000	0.000083	679.220024	3.1
46	7951.684282	0.000000	0.000083	631.933004	3.1
47	8122.609097	0.000000	0.000083	646.521090	3.0
48	7656.187955	0.000000	0.000083	544.331174	3.3
49	7622.691516	0.000000	0.000083	656.629983	4.7
50	7876.403813	0.000000	0.000083	583.687045	5.3
51	7911.997071	0.000000	0.000083	560.212244	5.2
52	7827.717919	0.000000	0.000083	454.883511	4.6
53	7800.476310	0.000000	0.000083	486.577959	4.2
54	7644.871390	0.000000	0.000083	426.341740	4.3
55	7993.694620	0.000000	0.000083	511.832328	5.2
56	7900.513859	0.000000	0.000083	442.603899	4.9
57	7550.326187	0.000000	0.000083	450.509037	4.5
58	7655.695345	0.000000	0.000083	349.085434	4.4
59	7605.782382	0.000000	0.000083	341.915339	3.5
60	7644.936751	0.000000	0.000083	387.215295	3.3
61	7712.014755	0.000000	0.000083	324.242503	3.6
62	7107.748544	0.000000	0.000083	324.233161	3.3
63	7671.295483	0.000000	0.000083	374.104702	3.4
64	7448.523779	0.000000	0.000083	360.995179	3.3
65	7701.575835	0.000000	0.000083	361.573721	3.2
66	7682.329862	0.000000	0.000083	405.392372	3.2
67	7427.129065	0.000000	0.000083	286.663196	3.0
68	7595.536653	0.000000	0.000083	281.072467	2.7
69	7445.715930	0.000000	0.000083	316.599015	3.0
70	7884.266442	0.000000	0.000083	292.354565	2.7
71	7316.022685	0.000000	0.000083	325.228157	2.7
72	7552.619186	0.000000	0.000083	284.239050	2.5
73	7380.639198	0.000000	0.000083	277.278934	5.3
74	7512.152399	0.000000	0.000083	376.219838	5.0
75	7364.503685	0.000000	0.000083	230.952728	5.0
76	7655.785455	0.000000	0.000083	282.546262	4.2
77	7506.349007	0.000000	0.000083	306.847347	4.8
78	7611.371118	0.000000	0.000083	303.501533	4.0
79	7479.426161	0.000000	0.000083	253.588096	5.2
80	7535.558055	0.000000	0.000083	294.657771	3.1
81	7658.141670	0.000000	0.000083	276.352409	4.3
82	7464.224698	0.000000	0.000083	258.097080	4.6
83	7483.227790	0.000000	0.000083	310.258725	4.6
84	7161.560772	0.000000	0.000083	251.194063	3.0
85	7702.789239	0.000000	0.000083	291.896479	3.1
86	7555.871137	0.000000	0.000083	255.131047	4.4
87	7285.451129	0.000000	0.000083	299.648733	8.0
88	7685.697261	0.000000	0.000083	252.857096	5.1
89	7377.601710	0.000000	0.000083	236.029601	6.9
90	7408.304786	0.000000	0.000083	213.121525	4.7
91	7386.645694	0.000000	0.000083	256.433123	3.0
92	7353.773527	0.000000	0.000083	248.489004	3.0
93	7586.603097	0.000000	0.000083	265.640615	3.1
94	7228.775293	0.000000	0.000083	240.196597	3.0
95	7431.073495	0.000000	0.000083	251.723196	3.1
96	7113.723542	0.000000	0.000083	210.739537	5.2
97	7528.125622	0.000000	0.000083	236.228136	5.3
98	6989.357323	0.000000	0.000083	307.319155	5.4
99	7379.200401	0.000000	0.000083	240.959796	5.3
100	7579.628024	0.000000	0.000083	236.916269	5.2
101	7128.323223	0.000000	0.000083	218.463285	4.1
102	7296.280906	0.000000	0.000083	232.528518	3.9
103	7407.275763	0.000000	0.000083	247.768541	3.5
104	7203.737121	0.000000	0.000083	205.024644	3.9
105	7176.759085	0.000000	0.000083	246.685515	4.8
106	7141.176937	0.000000	0.000083	206.085447	4.9
107	7257.189297	0.000000	0.000083	230.629207	4.8
108	7240.544705	0.000000	0.000083	231.784606	3.0
109	7291.890968	0.000000	0.000083	218.184357	3.8
110	7508.817550	0.000000	0.000083	218.007170	3.0
111	7334.994824	0.000000	0.000083	215.903593	5.3
112	7252.499260	0.000000	0.000083	210.104004	5.5
113	7530.557958	0.000000	0.000083	226.652903	5.6
114	7208.627187	0.000000	0.000083	245.640186	5.0
115	7308.292840	0.000000	0.000083	300.644838	7.2
116	7354.260579	0.000000	0.000083	228.801981	5.3
117	7349.497668	0.000000	0.000083	241.315990	6.0
118	6992.280297	0.000000	0.000083	228.860825	4.4
119	6927.011403	0.000000	0.000083	205.958857	4.3
120	7142.367256	0.000000	0.000083	218.928850	4.1
121	7727.023346	0.000000	0.000083	241.421033	4.1
122	7153.589773	0.000000	0.000083	206.461103	7.7
123	7177.669601	0.000000	0.000083	245.135426	3.8
124	7192.604102	0.000000	0.000083	212.812438	4.4
125	6907.599907	0.000000	0.000083	208.926704	3.6
126	7326.134312	0.000000	0.000083	232.335865	3.7
127	7275.693522	0.000000	0.000083	255.167308	3.8
128	7174.835441	0.000000	0.000083	234.001225	4.9
129	6985.180936	0.000000	0.000083	218.999617	3.7
130	7349.392201	0.000000	0.000083	238.126781	5.0
131	7229.685491	0.000000	0.000083	202.048198	5.2
132	7258.074515	0.000000	0.000083	213.342304	5.2
133	6714.518179	0.000000	0.000083	185.553599	4.0
134	7313.042994	0.000000	0.000083	226.591318	4.4
135	7192.766326	0.000000	0.000083	205.372987	5.2
136	7096.563403	0.000000	0.000083	232.595924	5.5
137	7331.976870	0.000000	0.000083	214.864438	5.5
138	7003.278056	0.000000	0.000083	195.497469	5.4
139	7293.209720	0.000000	0.000083	210.439621	5.3
140	7029.966262	0.000000	0.000083	219.060303	5.2
141	7206.133191	0.000000	0.000083	205.779271	5.4
142	7343.888941	0.000000	0.000083	235.360203	5.3
143	7623.143089	0.000000	0.000083	239.835632	5.1
144	7094.644073	0.000000	0.000083	240.624955	4.7
145	7338.430855	0.000000	0.000083	229.653335	5.3
146	6943.459603	0.000000	0.000083	199.115864	4.2
147	6996.581628	0.000000	0.000083	261.913762	2.9
148	7134.233509	0.000000	0.000083	219.935666	2.9
149	7436.168432	0.000000	0.000083	236.768517	6.3
150	7255.756459	0.000000	0.000083	276.030896	3.1
151	7192.970565	0.000000	0.000083	233.281447	3.2
152	7296.199156	0.000000	0.000083	239.992250	3.7
153	7394.748323	0.000000	0.000083	254.848741	3.7
154	7456.033977	0.000000	0.000083	210.953575	3.7
155	7102.053993	0.000000	0.000083	216.242646	3.2
156	7272.270883	0.000000	0.000083	203.187410	4.0
157	6790.954709	0.000000	0.000083	186.761787	3.4
158	7173.863571	0.000000	0.000083	251.342070	6.1
159	7347.923054	0.000000	0.000083	230.444725	5.3
160	7274.153710	0.000000	0.000083	207.932610	5.1
161	7339.301561	0.000000	0.000083	252.438371	4.6
162	7220.777669	0.000000	0.000083	246.188540	4.5
163	6957.993034	0.000000	0.000083	241.065517	6.8
164	7013.919838	0.000000	0.000083	205.629880	5.0
165	7148.610087	0.000000	0.000083	201.811479	3.6
166	7126.692017	0.000000	0.000083	197.602747	4.8
167	7000.191381	0.000000	0.000083	216.830052	3.1
168	7572.365096	0.000000	0.000083	231.851604	2.7
169	7161.562068	0.000000	0.000083	215.206335	3.7
170	7242.945461	0.000000	0.000083	258.931386	5.1
171	7273.254537	0.000000	0.000083	227.843307	5.1
172	7132.561355	0.000000	0.000083	222.093267	5.1
173	7141.492661	0.000000	0.000083	310.772129	6.2
174	7124.822839	0.000000	0.000083	217.461462	4.9
175	7291.331336	0.000000	0.000083	210.041161	4.7
176	7055.137136	0.000000	0.000083	208.792462	4.5
177	7257.532814	0.000000	0.000083	228.594781	4.1
178	7212.521384	0.000000	0.000083	208.325152	4.1
179	7002.327108	0.000000	0.000083	208.076031	3.4
180	7068.994285	0.000000	0.000083	214.694643	5.3
181	7121.642004	0.000000	0.000083	279.139566	3.4
182	7139.005828	0.000000	0.000083	237.444102	3.5
183	7181.250898	0.000000	0.000083	250.134418	3.6
184	7018.889364	0.000000	0.000083	226.078885	3.5
185	7085.915035	0.000000	0.000083	254.274356	3.8
186	7202.791745	0.000000	0.000083	207.397140	3.5
187	6952.529256	0.000000	0.000083	200.612707	3.4
188	7099.737802	0.000000	0.000083	211.911009	7.0
189	7173.705681	0.000000	0.000083	225.416059	4.0
190	7266.527296	0.000000	0.000083	232.914198	5.4
191	6999.692955	0.000000	0.000083	222.476376	5.2
192	7212.792287	0.000000	0.000083	229.274279	9.5
193	7357.075533	0.000000	0.000083	203.372993	5.5
194	7047.417837	0.000000	0.000083	224.536399	9.9
195	6779.935889	0.000000	0.000083	251.445361	3.1
196	7186.800225	0.000000	0.000083	232.624141	3.2
197	7121.837909	0.000000	0.000083	221.231666	4.6
198	7187.419032	0.000000	0.000083	212.324447	3.6
199	7190.857048	0.000000	0.000083	219.609348	3.4
200	7027.398687	0.000000	0.000083	208.781514	5.4
201	7086.371112	0.000000	0.000083	233.368105	3.8
202	7312.727816	0.000000	0.000083	237.005202	3.7
203	7204.315624	0.000000	0.000083	263.060368	5.3
204	7096.747242	0.000000	0.000083	280.105793	3.9
205	6964.978690	0.000000	0.000083	222.926407	3.8
206	7066.078424	0.000000	0.000083	250.087961	3.9
207	6919.816917	0.000000	0.000083	196.017539	3.9
208	6985.700934	0.000000	0.000083	194.912574	3.9
209	6986.530315	0.000000	0.000083	227.439020	6.4
210	6840.970885	0.000000	0.000083	211.014789	6.6
211	7292.643712	0.000000	0.000083	198.313844	4.8
212	7010.550387	0.000000	0.000083	215.416016	4.4
213	6857.584322	0.000000	0.000083	235.291591	4.0
214	6792.508678	0.000000	0.000083	189.257921	4.9
215	6922.491682	0.000000	0.000083	216.449525	5.4
216	7139.939717	0.000000	0.000083	196.493576	3.8
217	6841.819972	0.000000	0.000083	196.352095	3.9
218	7088.018488	0.000000	0.000083	201.047039	3.6
219	6939.928194	0.000000	0.000083	190.041023	3.9
220	7107.993362	0.000000	0.000083	210.005821	4.6
221	6671.816963	0.000000	0.000083	189.680296	3.9
222	7006.029718	0.000000	0.000083	202.817538	6.0
223	6999.447709	0.000000	0.000083	246.974097	5.2
224	7040.912350	0.000000	0.000083	228.106313	3.7
225	7184.901101	0.000000	0.000083	205.717042	4.1
226	6742.662463	0.000000	0.000083	180.190797	4.0
227	7050.140854	0.000000	0.000083	197.931964	3.5
228	6770.352395	0.000000	0.000083	214.939399	3.3
229	7177.148037	0.000000	0.000083	219.629294	6.1
230	7043.830145	0.000000	0.000083	261.813573	5.2
231	6738.007099	0.000000	0.000083	199.989006	4.5
232	6878.593359	0.000000	0.000083	307.890531	2.8
233	7029.419379	0.000000	0.000083	190.763396	2.7
234	6919.306083	0.000000	0.000083	187.788605	2.7
235	6843.928104	0.000000	0.000083	243.244961	4.0
236	6802.788404	0.000000	0.000083	223.197667	2.9
237	7001.411739	0.000000	0.000083	187.971983	6.8
238	6931.823536	0.000000	0.000083	217.894117	3.1
239	6797.804415	0.000000	0.000083	186.828346	5.0
240	7141.363081	0.000000	0.000083	198.642506	5.3
241	6915.910193	0.000000	0.000083	228.972083	4.8
242	6896.055573	0.000000	0.000083	193.886905	4.6
243	6912.859753	0.000000	0.000083	184.972236	4.2
244	6710.455018	0.000000	0.000083	184.559045	4.1
245	6915.301669	0.000000	0.000083	222.987954	4.7
246	6708.521043	0.000000	0.000083	279.403190	4.1
247	6931.848739	0.000000	0.000083	195.798071	3.8
248	6999.227805	0.000000	0.000083	198.993374	6.8
249	6921.123514	0.000000	0.000083	257.971558	4.1
250	7060.093934	0.000000	0.000083	229.192944	3.3
251	6866.611066	0.000000	0.000083	191.280045	3.6
252	6898.975150	0.000000	0.000083	239.312366	5.1
253	6717.572232	0.000000	0.000083	265.334707	3.5
254	6596.022650	0.000000	0.000083	291.489218	3.6
255	7017.782945	0.009539	0.000083	198.681175	3.5
256	6937.395945	0.004146	0.000083	409.307263	2.7
257	6825.289069	0.000000	0.000083	188.386258	7.0
258	6744.726255	0.000000	0.000083	208.114479	3.2
259	7156.521676	0.000000	0.000083	202.524955	2.9
260	6829.144962	0.000000	0.000083	227.943772	2.9
261	6815.647410	0.000000	0.000083	194.241437	3.4
262	7038.906826	0.000000	0.000083	211.396327	3.2
263	6823.610978	0.000000	0.000083	184.969870	3.3
264	7025.585319	0.000000	0.000083	219.456330	3.4
265	6981.801080	0.000000	0.000083	219.996502	4.0
266	7076.154891	0.000000	0.000083	217.293446	4.3
267	6679.640245	0.000000	0.000083	202.367262	3.6
268	7228.274546	0.000000	0.000083	259.463213	3.2
269	6791.328643	0.000000	0.000083	204.442407	4.0
270	6767.990669	0.000000	0.000083	237.992577	4.3
271	6753.003115	0.000000	0.000083	181.139240	3.7
272	6692.766157	0.000000	0.000083	183.156307	5.6
273	6715.892744	0.000000	0.000083	212.474146	5.6
274	6898.831324	0.000000	0.000083	226.881415	5.3
275	6919.229002	0.000000	0.000083	230.972201	5.3
276	6856.600611	0.000000	0.000083	286.919637	4.6
277	6754.129925	0.000000	0.000083	197.007317	8.0
278	6674.436400	0.000000	0.000083	232.036823	3.7
279	6566.971564	0.000000	0.000083	189.941427	3.6
280	6605.050699	0.000000	0.000083	237.702868	4.1
281	6613.620233	0.000000	0.000083	208.971945	4.1
282	6892.644959	0.000000	0.000083	201.290660	4.0
283	6774.326207	0.000000	0.000083	202.645869	4.1
284	6724.812824	0.000000	0.000083	185.164317	3.9
285	7049.447662	0.000000	0.000083	223.648817	5.7
286	6756.002894	0.000000	0.000083	209.732338	5.8
287	6797.460535	0.000000	0.000083	197.241267	3.8
288	6783.072345	0.000000	0.000083	186.667742	3.9
289	7031.454992	0.000000	0.000083	226.432799	3.8
290	6926.043600	0.000000	0.000083	194.868472	3.9
291	6545.217508	0.000000	0.000083	205.222264	3.8
292	6696.761777	0.000000	0.000083	206.219086	3.8
293	6828.958688	0.000000	0.000083	228.038812	4.4
294	6871.828533	0.000000	0.000083	298.232195	5.6
295	6672.846455	0.000000	0.000083	187.826912	5.5
296	6767.322821	0.000000	0.000083	223.488623	5.5
297	6910.228319	0.000000	0.000083	207.231363	8.6
298	6713.688833	0.000000	0.000083	186.476965	5.1
299	6564.940733	0.000000	0.000083	221.406418	5.3
300	6592.265937	0.000000	0.000083	252.768919	7.9
301	6931.555065	0.000000	0.000083	195.115255	5.9
302	6829.133487	0.000000	0.000083	206.025647	5.3
303	6561.760076	0.000000	0.000083	191.891524	3.7
304	6741.834133	0.000000	0.000083	192.464861	4.2
305	6619.524149	0.000000	0.000083	204.677312	4.2
306	6888.078097	0.000000	0.000083	195.748521	5.5
307	6620.615949	0.000000	0.000083	180.056068	4.5
308	6756.678884	0.000000	0.000083	197.243357	4.2
309	6637.626026	0.000000	0.000083	191.351737	4.4
310	6918.621853	0.000000	0.000083	220.130906	4.2
311	6638.794297	0.000000	0.000083	209.739190	3.3
312	6514.923795	0.000000	0.000083	230.144883	3.3
313	6782.028403	0.000000	0.000083	193.633298	3.8
314	6976.705408	0.000000	0.000083	222.464197	4.0
315	6521.965177	0.000000	0.000083	179.991060	4.7
316	6604.594592	0.000000	0.000083	187.333906	5.3
317	6695.980949	0.000000	0.000083	183.705402	5.3
318	7058.478776	0.000000	0.000083	213.928832	4.5
319	6592.250209	0.000000	0.000083	188.897079	3.8
320	6702.446129	0.000000	0.000083	204.156072	4.2
321	6757.316551	0.000000	0.000083	182.012179	4.8
322	6658.880894	0.000000	0.000083	191.592436	4.8
323	6605.762525	0.000000	0.000083	257.074080	4.1
324	6869.202186	0.000000	0.000083	250.472840	6.9
325	6439.845445	0.000000	0.000083	236.916855	5.1
326	6675.351219	0.000000	0.000083	185.588089	5.0
327	6850.640208	0.000000	0.000083	188.524443	4.9
328	6500.328356	0.000000	0.000083	179.445395	4.6
329	6604.024150	0.000000	0.000083	202.215796	3.8
330	6687.090501	0.000000	0.000083	180.046277	4.2
331	6432.261510	0.000000	0.000083	203.880024	4.1
332	6902.921795	0.000000	0.000083	227.289559	3.7
333	6371.052037	0.000000	0.000083	190.372178	4.1
334	6739.223891	0.000000	0.000083	228.836477	3.9
335	6747.931164	0.000000	0.000083	196.885827	5.5
336	6499.546355	0.000000	0.000083	196.318532	4.6
337	6758.624021	0.000000	0.000083	177.555926	3.4
338	6623.388540	0.000000	0.000083	213.135199	4.2
339	6784.251722	0.000000	0.000083	215.500747	3.7
340	6650.606176	0.000000	0.000083	172.719671	4.0
341	6450.077328	0.000000	0.000083	173.028415	4.5
342	6729.718759	0.000000	0.000083	211.804141	4.3
343	6649.706950	0.000000	0.000083	286.796175	3.5
344	6455.050869	0.000000	0.000083	193.007090	3.2
345	6670.250257	0.000000	0.000083	181.396632	4.3
346	6783.872218	0.000000	0.000083	185.989392	5.0
347	6665.599114	0.000000	0.000083	193.216739	5.1
348	6647.485807	0.000000	0.000083	191.516464	3.3
349	6499.341333	0.000000	0.000083	191.660730	3.0
350	6443.707531	0.000000	0.000083	189.877325	4.9
351	6834.216240	0.000000	0.000083	304.172895	4.7
352	6778.433700	0.000000	0.000083	243.168780	7.0
353	6805.798962	0.000000	0.000083	239.950067	4.3
354	6541.985597	0.000000	0.000083	184.724683	4.4
355	6487.389751	0.000000	0.000083	238.301762	4.5
356	6518.455579	0.000000	0.000083	214.127485	5.8
357	6757.934131	0.000000	0.000083	285.414817	5.2
358	6388.509997	0.000000	0.000083	205.877929	5.0
359	6780.308447	0.000000	0.000083	194.854264	3.4
360	6772.865209	0.000000	0.000083	227.198280	3.7
361	6687.385026	0.000000	0.000083	186.050771	3.6
362	6436.949981	0.000000	0.000083	166.254590	3.5
363	6403.026429	0.000000	0.000083	221.523633	3.8
364	6575.564272	0.000000	0.000083	179.229546	3.6
365	6706.899520	0.000000	0.000083	208.494349	3.0
366	6539.421516	0.000000	0.000083	182.058430	3.3
367	6575.781198	0.000000	0.000083	243.745958	3.5
368	6937.143484	0.000000	0.000083	307.052697	3.2
369	6567.084913	0.000000	0.000083	182.165263	2.9
370	6674.666262	0.000000	0.000083	217.563602	3.0
371	6531.649785	0.000000	0.000083	183.361456	3.4
372	6486.688943	0.000000	0.000083	224.483043	5.9
373	6879.251732	0.000000	0.000083	234.943784	5.6
374	6736.584507	0.000000	0.000083	197.304963	5.3
375	6744.624217	0.000000	0.000083	280.157168	5.1
376	6325.237618	0.000000	0.000083	177.856081	4.7
377	6781.366406	0.000000	0.000083	271.179296	6.6
378	6565.149224	0.000000	0.000083	179.822591	6.0
379	6452.905456	0.000000	0.000083	288.765217	7.6
380	6413.891952	0.000000	0.000083	165.971521	3.7
381	6468.923595	0.000000	0.000083	213.061733	4.1
382	6335.085834	0.000000	0.000083	168.738088	3.8
383	6325.057858	0.000000	0.000083	245.321236	4.3
384	5981.291434	0.000000	0.000083	182.415248	4.4
385	6515.944742	0.000000	0.000083	194.793841	3.2
386	6399.617602	0.000000	0.000083	169.644833	3.5
387	6382.302476	0.000000	0.000083	177.046763	5.0
388	6535.746276	0.000000	0.000083	249.322359	3.2
389	6791.550526	0.000000	0.000083	182.930564	5.6
390	6583.704836	0.000000	0.000083	216.758296	3.9
391	6634.864362	0.000000	0.000083	255.887308	5.3
392	6652.640100	0.000000	0.000083	184.705073	3.1
393	6653.439376	0.000000	0.000083	174.978462	3.1
394	6590.584568	0.000000	0.000083	333.413687	3.3
395	6342.309150	0.000000	0.000083	200.050112	4.4
396	6664.112285	0.000998	0.000083	185.959762	4.9
397	6497.110764	0.000000	0.000083	185.835300	5.0
398	6468.052198	0.000000	0.000083	172.208568	4.0
399	6714.631356	0.000000	0.000083	186.891770	3.9
400	6251.330988	0.000000	0.000083	157.501426	5.0
401	6628.782043	0.000000	0.000083	234.677211	4.8
402	6542.588908	0.000000	0.000083	224.832786	2.9
403	6558.721676	0.000000	0.000083	197.698757	4.7
404	6372.285389	0.000000	0.000083	196.776715	2.4
405	6417.139392	0.000000	0.000083	173.108684	3.8
406	6805.369059	0.000000	0.000083	195.359462	2.6
