1:ItNr	2:Metric	3a:Time	3b:StepSize	4:||Gradient||	Time[ms]
0	42538.998474	0.000000	0.000427	4341.363021	244.9
1	34009.068956	0.000000	0.000427	4335.054762	2.7
2	25483.111504	0.000000	0.000427	4316.765570	2.9
3	17321.940891	0.000000	0.000427	3857.668391	3.5
4	12271.175036	0.000000	0.000427	3336.043142	2.6
5	7869.879084	0.000000	0.000427	2268.185212	2.8
6	6455.677346	0.000000	0.000427	1756.422970	2.2
7	5268.531097	0.000000	0.000427	1121.177605	5.1
8	4989.831337	0.000000	0.000427	896.603959	5.2
9	4995.821109	0.000000	0.000427	593.276427	4.3
10	4330.738686	0.000000	0.000427	454.702784	4.0
11	4301.317600	0.000000	0.000427	362.312917	4.1
12	4793.020560	0.000000	0.000427	328.778273	4.1
13	4081.785629	0.000000	0.000427	370.922682	4.8
14	3865.855611	0.000000	0.000427	329.804435	4.3
15	4542.797359	0.000000	0.000427	151.311130	4.2
16	3983.412114	0.000000	0.000427	212.724575	4.1
17	3873.698763	0.000000	0.000427	205.944240	4.5
18	3856.280274	0.000000	0.000427	242.129170	3.8
19	3904.499140	0.000000	0.000427	190.004011	5.2
20	3886.236519	0.000000	0.000427	234.857205	2.5
21	4232.224300	0.000000	0.000427	175.286659	2.7
22	3805.249104	0.000000	0.000427	147.217078	5.7
23	4192.621055	0.000000	0.000427	100.389518	4.6
24	4141.497696	0.000000	0.000427	112.331965	4.5
25	4201.461521	0.000000	0.000427	231.929941	4.3
26	3617.528558	0.000000	0.000427	72.665542	4.2
27	4029.374152	0.000000	0.000427	89.886940	4.2
28	4256.579296	0.011507	0.000427	174.227867	3.8
29	4104.391733	0.007681	0.000427	175.908564	3.9
30	4225.857807	0.000000	0.000427	117.105485	3.2
31	3890.535506	0.000000	0.000427	212.461951	2.9
32	3909.697790	0.000000	0.000427	97.648245	2.8
33	4276.461014	0.000000	0.000427	204.014584	2.8
34	4334.461508	0.000000	0.000427	42.575024	2.6
35	3931.700553	0.000000	0.000427	167.970141	3.6
36	4100.299867	0.162745	0.000424	103.170444	3.9
37	4201.832350	0.184898	0.000424	97.750697	2.9
38	4269.580342	0.173465	0.000424	64.878249	5.3
39	4080.075062	0.163285	0.000424	65.652193	3.8
40	3778.020381	0.153393	0.000424	135.312932	3.3
41	4180.451212	0.146789	0.000424	95.281304	3.4
42	3978.041289	0.912629	0.000410	192.931742	2.7
43	3526.155539	1.911452	0.000392	135.617974	2.5
44	3960.006238	1.899959	0.000392	100.737572	2.4
45	4280.804023	2.315699	0.000385	40.797882	3.2
46	4030.097688	2.368853	0.000384	167.685271	2.2
47	4063.198914	2.613334	0.000380	75.331047	2.2
48	4071.697247	2.688190	0.000379	70.962473	5.8
49	4081.074879	2.678164	0.000379	95.602703	2.2
50	3885.049183	2.697253	0.000379	119.760504	2.3
51	3968.258482	2.685783	0.000379	130.064461	5.4
52	4084.045943	2.721072	0.000378	82.263891	4.2
53	4449.326602	3.030323	0.000373	139.340730	4.3
54	3962.767201	3.051930	0.000373	95.898021	4.6
55	3986.579323	3.664640	0.000364	67.045410	4.3
56	4134.140922	3.654065	0.000364	77.699932	4.2
57	4134.048536	3.645514	0.000364	131.804999	4.1
58	3890.333639	3.634810	0.000364	141.401307	4.7
59	4363.250252	3.965818	0.000359	87.430291	4.6
60	4000.136313	3.954559	0.000360	110.865502	4.3
61	4036.590236	4.637286	0.000350	97.038855	4.6
62	4152.160141	4.679136	0.000349	153.980377	5.4
63	3722.463226	4.667646	0.000350	181.508638	4.3
64	3783.409537	5.306824	0.000341	75.279288	4.3
65	3760.517298	5.432111	0.000340	129.687604	4.6
66	3937.596193	6.130850	0.000331	145.831494	4.4
67	4595.416686	6.830927	0.000322	181.209403	4.2
68	3508.447690	6.822965	0.000323	217.762743	4.2
69	3930.505408	7.821806	0.000311	120.334890	5.6
70	3896.642278	7.812947	0.000311	107.856272	3.0
71	4346.439995	7.955031	0.000310	158.557663	2.9
72	4134.555320	7.943539	0.000310	69.254045	3.3
73	4164.663106	7.933210	0.000310	92.458460	2.6
74	4020.244569	7.934725	0.000310	65.200454	4.3
75	4196.855594	7.942486	0.000310	78.280879	4.6
76	3985.583084	7.942522	0.000310	90.203779	4.5
77	4022.923971	7.945516	0.000310	73.511398	4.4
78	3822.244248	8.112229	0.000308	60.839876	4.3
79	3837.080251	8.108696	0.000308	117.067699	4.3
80	3997.367541	8.097553	0.000308	81.466179	3.5
81	3686.368207	8.086158	0.000309	64.572938	3.1
82	4289.178833	8.075959	0.000309	226.342140	4.2
83	4408.007979	8.977585	0.000299	69.671217	2.4
84	4061.904041	8.997379	0.000299	187.018372	3.2
85	4092.441040	9.091540	0.000298	48.275494	3.3
86	3968.586971	9.080167	0.000298	117.518831	3.6
87	4068.086644	9.098086	0.000298	90.206567	3.5
88	3796.335684	9.096050	0.000298	50.478881	3.5
89	4008.476664	9.096580	0.000298	127.264975	2.6
90	3774.734148	9.085783	0.000298	91.535902	2.6
91	3666.748547	9.293330	0.000296	177.580512	4.9
92	4109.274014	9.755783	0.000292	70.354782	2.4
93	4003.297689	9.753607	0.000292	79.024795	2.4
94	4097.305490	9.745778	0.000292	75.824802	2.6
95	4085.893351	9.776152	0.000292	84.829188	3.9
96	4259.590133	9.767260	0.000292	41.266973	4.6
97	3912.352089	9.772067	0.000292	90.465591	2.2
98	3903.572284	9.762455	0.000292	54.362518	2.3
99	3968.809771	9.781796	0.000292	96.215252	2.4
100	4094.627015	9.783585	0.000292	135.894453	2.5
101	4362.711556	9.772098	0.000292	63.221158	2.4
102	3698.687361	9.760809	0.000292	107.251218	2.4
103	3984.856937	9.974561	0.000290	115.351271	2.3
104	4174.861965	9.990793	0.000290	89.257219	4.0
105	3914.406098	9.979329	0.000290	105.945976	2.7
106	3807.901377	9.967924	0.000290	122.888395	1.9
107	3542.910496	10.304553	0.000287	140.464436	1.9
108	4300.637181	11.202222	0.000279	125.445209	1.9
109	4194.838257	11.560386	0.000276	110.740902	1.9
110	4452.826469	11.579800	0.000275	118.707035	1.9
111	4174.578279	11.615759	0.000275	38.747449	2.2
112	4160.833666	11.605039	0.000275	46.721875	1.8
113	4372.991349	11.603141	0.000275	135.996953	1.9
114	4246.281226	11.603611	0.000275	125.258443	1.8
115	3879.214076	11.600796	0.000275	63.262823	2.1
116	4274.788395	11.639118	0.000275	58.181019	2.0
117	4221.824139	11.647215	0.000275	99.586335	1.9
118	4319.159974	11.768380	0.000274	44.070031	1.8
119	4173.394791	11.759945	0.000274	124.656632	1.9
120	3924.333490	11.765896	0.000274	137.434181	1.7
121	3743.804365	12.248011	0.000270	168.604392	1.8
122	3982.422303	12.328703	0.000269	92.313316	1.8
123	4182.051624	12.317542	0.000269	113.153255	4.9
124	4178.893910	12.308391	0.000269	55.165353	4.4
125	3979.076199	12.299185	0.000270	131.427759	3.5
126	4304.692150	12.296620	0.000270	42.788264	1.8
127	3806.380508	12.363363	0.000269	146.684515	6.3
128	3981.330032	12.353309	0.000269	74.852672	2.2
129	4183.612864	13.262039	0.000262	109.103452	4.5
130	4098.850853	13.269322	0.000262	72.121809	4.6
131	4205.336434	13.501256	0.000260	241.929319	2.9
132	3808.859057	13.489775	0.000260	103.025519	3.3
133	4097.558842	13.478894	0.000260	106.276741	6.0
134	3964.020859	14.374922	0.000254	132.202363	4.6
135	3884.220737	15.312068	0.000247	152.794593	3.2
136	4026.169539	16.304958	0.000241	202.759764	8.8
137	3923.417323	17.086904	0.000236	83.414167	3.7
138	3787.198013	18.072954	0.000230	153.648329	3.8
139	4017.354823	18.061465	0.000230	105.421557	4.0
140	3765.128840	18.050014	0.000230	126.819807	3.8
141	4051.983322	18.038556	0.000230	99.327856	4.1
142	3825.299503	18.027194	0.000230	50.887181	2.8
143	4248.421047	18.019495	0.000230	36.523100	2.8
144	4472.279752	18.019238	0.000230	189.991571	3.9
145	4079.115763	18.012674	0.000230	82.151591	4.0
146	3950.319217	18.901067	0.000225	122.314800	2.4
147	3891.173953	18.889715	0.000225	88.948608	2.4
148	3796.117738	19.285768	0.000223	155.399023	2.9
149	3538.285144	19.274292	0.000223	66.929726	5.7
150	4196.495294	19.364818	0.000222	97.557293	2.7
151	4136.419238	19.367785	0.000222	30.031311	4.2
152	4407.648653	19.359527	0.000222	143.469042	4.3
153	3968.609084	19.388026	0.000222	130.909693	3.7
154	4378.489440	19.410675	0.000222	96.217083	3.8
155	4490.991617	19.548875	0.000221	82.097219	4.1
156	4174.169568	19.783492	0.000220	99.553054	3.4
157	4080.709853	20.171367	0.000218	56.775344	3.4
158	3774.284798	20.163833	0.000218	110.865360	2.8
159	4007.688818	20.286863	0.000217	73.847810	2.6
160	4012.190476	20.788771	0.000215	120.039825	2.7
161	3733.345016	20.777582	0.000215	141.968929	2.6
162	4476.807700	21.129225	0.000213	67.994631	2.2
163	4097.475105	21.118442	0.000213	60.250154	5.2
164	4200.241379	21.116717	0.000213	65.023956	1.9
165	4933.713543	21.121208	0.000213	201.094914	2.8
166	3558.105183	21.129658	0.000213	189.122494	4.3
167	4202.960568	22.129658	0.000208	82.214995	7.0
168	4081.713654	23.124387	0.000203	38.876585	4.7
169	3949.398245	23.116240	0.000203	99.273277	2.3
170	4063.432290	23.171545	0.000203	49.426340	3.0
171	3915.973620	23.160642	0.000203	102.203959	3.4
172	3537.325838	23.152658	0.000203	147.643627	2.2
173	4329.363678	23.141169	0.000203	148.670042	2.1
174	4214.636510	24.140702	0.000199	139.598245	3.0
175	3564.388711	24.129209	0.000199	84.972342	4.6
176	3950.020378	24.118660	0.000199	87.109885	3.9
177	4024.568111	24.238654	0.000198	216.517370	3.5
178	3684.831639	24.227727	0.000198	85.393526	4.4
179	3989.569889	24.216239	0.000198	108.732225	4.1
180	4137.505849	24.629160	0.000197	141.504311	2.6
181	4487.719818	24.707364	0.000196	87.437628	4.8
182	4073.876443	24.695896	0.000196	96.029427	3.6
183	4006.840428	24.691370	0.000196	58.114211	4.3
184	3827.466252	24.681294	0.000196	100.490568	3.7
185	3948.158942	24.670203	0.000197	81.973538	3.8
186	3737.891683	24.901133	0.000196	61.717583	2.2
187	3912.560138	24.890393	0.000196	103.620791	2.7
188	4176.397398	24.883248	0.000196	153.939414	2.6
189	4339.030162	25.011432	0.000195	77.908088	2.6
190	3951.140629	24.999951	0.000195	92.065386	4.2
191	3994.962916	25.015546	0.000195	56.102732	3.3
192	3882.406133	25.004530	0.000195	90.391227	2.0
193	4081.508114	25.023574	0.000195	92.253256	2.1
194	3843.289967	25.040308	0.000195	106.453830	2.1
195	4263.724513	25.283991	0.000194	207.437702	4.0
196	4041.249538	26.271738	0.000190	130.154795	4.0
197	4139.570909	27.271730	0.000186	94.358289	3.2
198	4107.554086	27.619414	0.000185	118.004818	4.6
199	4200.474612	28.279372	0.000182	110.625485	2.6
200	3782.081492	29.241856	0.000179	106.615827	2.7
201	4246.534194	30.110899	0.000176	110.643860	2.5
202	3828.606713	30.594038	0.000174	28.483182	3.5
203	4013.795862	30.594499	0.000174	77.140269	4.5
204	4025.169571	30.594174	0.000174	84.803582	2.4
205	4653.735691	30.662474	0.000174	59.167868	5.7
206	3755.013761	30.719561	0.000174	217.174057	4.8
207	4205.324220	30.816161	0.000173	56.285062	4.5
208	3703.185369	31.388406	0.000171	109.848014	4.5
209	3785.911281	31.427822	0.000171	94.804775	4.4
210	4036.986943	31.487059	0.000171	89.448211	4.3
211	4113.170771	31.488231	0.000171	66.564196	4.2
212	4074.692610	31.487991	0.000171	114.137028	4.2
213	3794.304480	31.476905	0.000171	187.854128	4.1
214	3891.488831	32.476632	0.000168	165.053891	3.7
215	4145.106367	32.465139	0.000168	150.029064	3.0
216	3940.222631	33.464825	0.000165	70.155131	2.4
217	4160.272665	33.453538	0.000165	76.940310	2.3
218	4233.110208	33.443816	0.000165	86.630668	2.4
219	3833.099928	33.433094	0.000165	88.895769	2.0
220	4431.742878	33.422540	0.000165	69.290992	4.9
221	4063.808511	33.412851	0.000165	83.215169	2.0
222	3701.120713	33.401712	0.000165	106.265433	2.0
223	4377.981869	33.446145	0.000165	164.015212	4.4
224	3732.542607	33.434680	0.000165	117.951233	4.4
225	3900.066301	34.433428	0.000162	103.930197	2.5
226	3968.544916	34.430910	0.000162	111.245354	4.1
227	3745.790434	34.419431	0.000162	109.966962	3.5
228	4324.831876	34.605830	0.000161	65.441323	3.1
229	4510.502914	34.594502	0.000161	97.559146	4.3
230	3784.893849	34.595288	0.000161	73.638947	3.3
231	3701.939118	34.584750	0.000161	106.476809	3.4
232	3871.564690	34.574834	0.000161	193.521310	5.5
233	4415.331850	34.564246	0.000162	117.929268	2.7
234	4103.790366	35.563182	0.000159	65.961592	2.7
235	3838.408439	35.841504	0.000158	39.784013	4.1
236	3698.593088	35.833403	0.000158	100.983587	2.7
237	4120.957782	35.874550	0.000158	54.393801	2.6
238	4064.539836	36.047554	0.000157	63.424846	2.4
239	4052.508131	36.042440	0.000157	66.576832	2.7
240	4057.056747	36.044768	0.000157	48.305432	2.3
241	3727.277414	36.047279	0.000157	101.113204	4.9
242	3990.309985	36.050298	0.000157	56.657491	5.7
243	4174.703571	36.058481	0.000157	80.932968	1.8
244	3556.065305	36.047612	0.000157	22.180244	1.9
245	3937.215168	36.045941	0.000157	41.863717	3.2
246	3951.794180	36.043207	0.000157	63.419779	4.8
247	3677.011602	36.038814	0.000157	126.264832	3.2
248	4161.918388	36.365010	0.000156	168.299757	5.4
249	3825.333928	36.354688	0.000156	179.996013	3.8
250	4017.982960	36.343195	0.000157	69.663715	2.3
251	4100.293565	37.123424	0.000154	111.806015	2.4
252	3891.510073	37.163725	0.000154	82.170042	2.7
253	3590.586909	37.152694	0.000154	29.840789	3.4
254	4467.914189	37.145362	0.000154	79.377353	3.3
255	4033.744412	37.140237	0.000154	37.873385	3.3
256	4215.575243	37.135784	0.000154	48.701286	3.6
257	3983.826889	37.134888	0.000154	76.438110	3.2
258	4116.397807	37.132932	0.000154	169.589035	3.0
259	4277.799604	37.121640	0.000154	48.002136	4.4
260	4276.358711	37.113247	0.000154	69.853505	4.4
261	4099.327741	37.104339	0.000154	61.746212	4.3
262	4044.801400	37.101724	0.000154	77.295138	2.1
263	3757.876584	37.091890	0.000154	36.465652	3.7
264	3863.909240	37.102765	0.000154	43.143230	4.7
265	4175.546912	37.096210	0.000154	78.601712	3.3
266	4016.733293	37.087054	0.000154	180.259230	2.9
267	4019.103705	37.106172	0.000154	100.020189	4.4
268	4112.981632	37.334780	0.000154	88.178921	3.1
269	4243.178308	37.331033	0.000154	83.069339	3.7
270	4457.399667	37.320623	0.000154	60.377715	3.0
271	3830.613762	37.315921	0.000154	190.114019	4.7
272	4173.327217	37.304520	0.000154	62.438159	4.3
273	3808.693744	37.297119	0.000154	133.380444	4.2
274	4206.366643	37.286311	0.000154	87.434740	4.7
275	3906.671553	38.153393	0.000152	127.578497	5.9
276	4001.323601	38.377632	0.000151	138.528597	3.1
277	4323.033096	39.372541	0.000149	123.697858	2.8
278	4373.867621	39.361049	0.000149	97.110974	2.9
279	3867.229584	39.934330	0.000147	40.922520	2.6
280	3605.979255	39.923855	0.000147	129.911416	4.6
281	3998.405433	39.912817	0.000147	98.789748	4.5
282	3760.362482	39.901425	0.000147	100.210523	3.2
283	3981.177508	39.889954	0.000147	73.322410	2.9
284	4226.621921	40.101399	0.000147	97.890368	3.0
285	3820.708922	40.090925	0.000147	40.238866	3.2
286	3819.113098	40.136223	0.000147	41.841328	2.5
287	3858.485609	40.130059	0.000147	57.975125	2.6
288	3265.153032	40.142589	0.000147	61.298723	2.4
289	4128.616607	40.188013	0.000147	128.310234	2.6
290	3893.594644	40.176773	0.000147	63.528167	4.3
291	4061.579775	40.205615	0.000147	49.273739	2.9
292	4129.172810	40.220156	0.000147	43.760814	2.8
293	4068.334587	40.211725	0.000147	100.315276	2.8
294	4202.187164	40.201594	0.000147	40.950323	4.9
295	3735.314133	40.233147	0.000147	69.862133	2.7
296	3914.558817	40.224619	0.000147	87.249194	4.5
297	4012.401752	40.214543	0.000147	122.415483	7.4
298	4141.568671	40.936199	0.000145	71.834597	4.4
299	4008.582776	40.984794	0.000145	62.264875	4.3
300	4193.525578	40.977547	0.000145	175.785622	4.3
301	4320.212408	41.001438	0.000145	95.929187	3.2
302	4392.249162	40.990068	0.000145	101.603573	3.3
303	3758.342022	40.978768	0.000145	121.143242	3.1
304	4093.779986	41.107506	0.000144	101.532866	4.0
305	4369.609526	41.876713	0.000143	67.706654	5.6
306	3969.955370	42.016824	0.000142	53.308950	3.8
307	4362.662487	42.013818	0.000142	132.739095	3.4
308	3888.759701	42.146121	0.000142	108.696359	4.4
309	3682.615231	43.123913	0.000140	121.387510	4.0
310	3894.187537	43.112424	0.000140	60.322282	2.9
311	4345.758852	43.204071	0.000140	152.364107	2.9
312	3683.838465	43.569941	0.000139	141.503681	2.8
313	4341.508889	43.559286	0.000139	98.975578	2.8
314	4039.206723	43.846630	0.000138	46.716076	2.8
315	3953.324530	43.848285	0.000138	84.637900	2.4
316	4234.871103	43.871256	0.000138	128.299382	2.1
317	3922.516933	43.893773	0.000138	68.694568	2.1
318	3889.842384	43.961540	0.000138	145.280350	2.2
319	3755.724829	43.952230	0.000138	62.209428	2.1
320	3741.449404	43.944643	0.000138	84.281569	2.0
321	4066.131487	43.934194	0.000138	52.262147	4.5
322	3825.910037	43.929818	0.000138	60.014285	5.1
323	3745.273037	43.924327	0.000138	109.254146	4.5
324	3693.870675	43.913138	0.000138	135.739155	6.3
325	4005.693131	43.901646	0.000138	94.261400	3.9
326	4252.011890	44.810108	0.000136	150.328671	3.8
327	4020.338313	45.792782	0.000134	88.674454	3.3
328	4066.575299	45.784100	0.000134	135.688642	3.4
329	3539.638806	45.778738	0.000134	125.581692	3.4
330	3750.991298	45.767271	0.000134	61.919895	2.8
331	4080.473875	45.780693	0.000134	74.462703	3.7
332	3906.641632	45.798533	0.000134	60.705345	3.8
333	4339.526597	45.789567	0.000134	40.757300	2.6
334	3810.532237	45.782374	0.000134	84.963715	5.3
335	4180.242088	45.773503	0.000134	97.723614	2.4
336	3861.657568	46.004413	0.000134	59.922355	4.9
337	3734.771622	46.030851	0.000134	208.639592	2.7
338	4040.475486	46.838712	0.000132	123.349080	5.3
339	4099.805730	47.837483	0.000130	61.011333	3.3
340	4303.513981	47.909799	0.000130	34.262737	3.1
341	3495.322554	47.908485	0.000130	105.783102	4.8
342	3549.571655	47.901774	0.000130	69.276020	2.0
343	4071.570706	47.903017	0.000130	101.172821	4.9
344	3932.810414	47.892001	0.000130	71.361316	2.2
345	3910.889492	48.226631	0.000130	72.145205	2.2
346	3911.343365	48.336007	0.000129	46.324531	5.2
347	3821.977771	48.327147	0.000129	100.646310	4.1
348	3988.551963	48.316251	0.000129	73.621277	4.3
349	3780.431188	48.349152	0.000129	142.198788	4.0
350	3918.240518	48.412123	0.000129	152.169260	4.1
351	4583.165914	49.118812	0.000128	74.736296	3.3
352	3899.158825	49.107328	0.000128	82.508495	3.0
353	4074.590494	49.097503	0.000128	87.515723	3.0
354	3970.602906	49.090560	0.000128	109.056143	2.9
355	3659.842743	49.079836	0.000128	89.011152	4.2
356	3956.322051	49.142883	0.000128	75.434323	3.6
357	3938.268854	49.304387	0.000128	87.260508	2.4
358	3996.544513	49.311794	0.000128	24.144947	2.6
359	3597.558073	49.321857	0.000128	163.521069	3.7
360	4232.025921	49.351371	0.000128	114.076411	3.2
361	4327.972860	49.674138	0.000127	151.948849	3.1
362	3996.037141	49.662646	0.000127	123.843015	4.5
363	4355.986156	50.480571	0.000126	160.937178	3.8
364	4367.908694	50.469350	0.000126	120.233295	3.3
365	4211.684029	50.457907	0.000126	115.427381	3.7
366	4162.369050	50.621721	0.000125	58.394804	3.9
367	4224.330941	50.644440	0.000125	34.166340	4.0
368	4045.939985	50.648179	0.000125	110.218482	3.8
369	3976.017364	50.688894	0.000125	81.130664	3.1
370	3934.937840	50.677469	0.000125	119.506996	3.0
371	3767.832552	50.885890	0.000125	92.702318	3.9
372	4359.925476	51.715025	0.000123	79.643169	4.0
373	3714.241838	51.724244	0.000123	61.842268	5.1
374	4312.389701	51.735828	0.000123	72.645845	4.6
375	3836.988054	51.729636	0.000123	105.385413	3.2
376	3871.534898	51.721214	0.000123	54.837616	3.1
377	4034.018249	51.710413	0.000123	103.392256	3.7
378	4181.333647	51.735348	0.000123	117.451930	4.4
379	4435.565866	51.723914	0.000123	62.956722	4.6
380	3934.455607	51.799803	0.000123	117.992295	4.6
381	3950.599788	51.788534	0.000123	105.434630	4.3
382	4153.458760	52.339973	0.000122	150.264976	5.1
383	3982.073308	53.315261	0.000121	85.036436	5.0
384	3823.588559	54.183808	0.000119	45.023737	5.7
385	3842.351856	54.175538	0.000119	53.317341	4.7
386	3876.021693	54.196603	0.000119	69.495307	5.3
387	3884.805623	54.237284	0.000119	117.669918	3.5
388	3954.912254	54.225871	0.000119	153.874435	4.5
389	4337.147753	54.214389	0.000119	125.733902	6.5
390	3906.136513	54.203097	0.000119	96.744247	3.2
391	3967.451170	55.139609	0.000118	96.122564	5.2
392	4164.165067	55.128394	0.000118	118.559576	4.1
393	4212.050906	55.116943	0.000118	103.703561	3.1
394	4215.902073	55.312233	0.000118	110.278133	3.2
395	4228.448849	55.693665	0.000117	130.908026	3.0
396	4020.083435	55.683142	0.000117	83.368372	3.1
397	3694.425931	55.712512	0.000117	116.866238	2.9
398	3967.590726	55.701257	0.000117	103.080392	3.1
399	4411.276385	55.691998	0.000117	66.016131	2.4
400	3947.668111	55.682194	0.000117	91.462639	2.7
401	4172.427391	55.672329	0.000117	157.341877	6.1
402	4011.303967	56.504464	0.000116	58.523284	2.2
403	4187.516104	56.642867	0.000116	49.623437	2.1
404	3816.664735	56.636297	0.000116	43.913645	2.2
405	4056.539298	56.644021	0.000116	108.796069	3.4
406	4324.655008	56.634465	0.000116	221.311522	3.5
