1:ItNr	2:Metric	3a:Time	3b:StepSize	4:||Gradient||	Time[ms]
0	26841.554428	0.000000	0.000817	2280.683652	218.1
1	21930.216061	0.000000	0.000817	2256.842937	1.4
2	17715.067512	0.000000	0.000817	2035.334218	1.4
3	13747.056611	0.000000	0.000817	2114.344053	1.4
4	10706.479005	0.000000	0.000817	1884.515632	1.5
5	7865.345084	0.000000	0.000817	1546.696233	2.1
6	6390.548867	0.000000	0.000817	1159.707867	2.5
7	5746.657062	0.000000	0.000817	714.668621	2.5
8	4786.295988	0.000000	0.000817	337.012166	2.5
9	4992.141305	0.000000	0.000817	253.797759	2.6
10	4865.363197	0.000000	0.000817	115.315564	1.9
11	4899.166518	0.000000	0.000817	73.828195	2.0
12	4855.445894	0.000000	0.000817	221.017824	2.6
13	4998.346533	0.000000	0.000817	79.407802	2.6
14	4688.665316	0.995345	0.000780	47.805653	2.8
15	5133.281562	0.984201	0.000780	96.746744	2.9
16	4943.884812	1.084033	0.000776	156.277868	3.1
17	4910.558550	2.071246	0.000743	58.517760	3.6
18	4928.304181	2.390892	0.000733	78.901125	2.3
19	4885.306531	2.377987	0.000734	106.319645	2.3
20	4761.299599	2.369716	0.000734	80.911821	2.4
21	4938.504179	2.355673	0.000734	61.977507	2.1
22	4861.128376	2.369446	0.000734	75.382190	2.0
23	5132.566867	2.357456	0.000734	70.060167	1.9
24	5096.409689	2.443520	0.000731	111.425268	1.9
25	4765.542837	2.429500	0.000732	79.782300	1.9
26	4679.852033	3.034089	0.000713	116.142783	2.0
27	4991.239616	3.020062	0.000714	39.667901	1.9
28	5158.372048	3.024214	0.000714	92.706370	2.1
29	4973.072875	3.018136	0.000714	121.368472	1.9
30	4757.943749	3.011101	0.000714	133.582682	1.9
31	4787.742211	2.997018	0.000715	100.005988	1.8
32	4834.357814	3.942758	0.000687	175.061787	1.9
33	4808.907289	3.928675	0.000688	46.713344	1.8
34	5058.934644	4.293628	0.000678	31.745372	1.9
35	4759.900141	4.288376	0.000678	78.654725	1.8
36	5050.487879	4.278658	0.000678	103.598589	1.7
37	4793.230521	4.265458	0.000679	108.279941	1.7
38	5076.965488	4.251666	0.000679	155.700191	1.9
39	4907.358823	4.237968	0.000679	149.902651	1.9
40	4839.857567	5.237945	0.000654	44.629625	2.0
41	4813.120357	5.468733	0.000648	132.365995	1.9
42	4841.046451	5.464219	0.000648	68.442069	1.9
43	5003.041517	5.456979	0.000648	93.585297	2.0
44	5140.765664	5.460737	0.000648	243.943017	1.9
45	4865.995648	6.460647	0.000624	74.379740	1.9
46	4883.927407	7.459824	0.000603	94.550220	1.9
47	5026.025268	7.671627	0.000598	100.155844	1.9
48	4911.276651	8.341166	0.000584	87.353979	1.8
49	4899.888354	8.327099	0.000585	56.622850	1.8
50	4961.422801	8.451161	0.000582	66.559218	1.8
51	4837.115882	8.439492	0.000582	59.604700	1.7
52	4694.691156	8.426039	0.000583	104.416039	2.1
53	4960.518565	8.637028	0.000579	100.480358	1.8
54	4982.431281	8.654596	0.000578	25.602541	1.8
55	4992.463169	8.664977	0.000578	40.368149	1.8
56	4667.990686	8.658693	0.000578	77.260523	1.8
57	4849.003872	8.646762	0.000578	25.609910	1.8
58	4831.439482	8.646054	0.000578	74.940276	1.9
59	4658.356168	8.643951	0.000578	84.067939	1.8
60	5023.364770	8.630080	0.000579	71.048365	1.9
61	4827.341106	8.616145	0.000579	212.796951	1.8
62	5003.543643	9.457220	0.000563	43.596476	1.8
63	5050.243242	10.238514	0.000549	48.265145	1.8
64	4844.386897	10.235066	0.000549	112.399455	1.8
65	4756.272175	10.221741	0.000549	54.608433	1.8
66	4866.186805	10.286530	0.000548	62.158030	1.8
67	4878.290392	10.315820	0.000548	58.547714	1.8
68	4667.598304	10.304613	0.000548	84.305859	1.8
69	4892.403784	10.302880	0.000548	68.420501	1.9
70	4905.501853	10.507075	0.000544	46.933222	1.9
71	4925.896503	10.495954	0.000544	64.449616	1.9
72	4973.169116	10.484536	0.000545	104.900675	1.8
73	4834.327404	10.850200	0.000538	83.746749	1.9
74	5123.490003	10.836234	0.000539	130.796344	1.9
75	4996.183585	10.822274	0.000539	99.526100	1.9
76	4739.706058	11.771345	0.000523	97.966407	1.8
77	4892.283003	11.757276	0.000523	65.433557	1.8
78	5004.944270	12.119906	0.000518	75.300286	1.8
79	4750.004953	12.107690	0.000518	54.851525	1.8
80	4900.898901	12.094226	0.000518	55.872834	1.8
81	5002.301707	12.083614	0.000518	42.809941	1.8
82	4791.369855	12.099810	0.000518	94.186591	1.8
83	4924.374789	12.092651	0.000518	60.458691	1.9
84	4860.760185	12.399408	0.000513	55.934343	1.8
85	4776.539800	12.413234	0.000513	111.788370	1.8
86	5078.834448	12.540130	0.000511	135.708448	1.8
87	4715.117264	13.531155	0.000497	68.927123	1.8
88	4862.382688	13.550223	0.000496	156.961607	1.9
89	4884.639581	13.552421	0.000496	68.679098	3.6
90	4686.593585	13.827593	0.000492	144.093563	4.5
91	4844.002459	13.949290	0.000491	111.609250	4.5
92	4836.660035	14.939475	0.000477	123.139369	4.5
93	4791.384429	15.929895	0.000464	48.911340	4.3
94	4847.554564	16.227366	0.000461	105.248260	4.2
95	4809.654895	16.213827	0.000461	113.763336	3.8
96	4826.169617	16.735976	0.000454	126.675875	3.8
97	5051.733453	16.766641	0.000454	126.961478	3.3
98	4758.785474	16.752571	0.000454	95.578936	3.0
99	5023.272975	17.742161	0.000443	66.039814	4.6
100	5142.895141	17.748856	0.000443	78.801692	4.6
101	5045.812834	17.757191	0.000442	215.048237	4.0
102	4814.252985	17.743140	0.000443	44.366696	3.2
103	4802.926505	18.001487	0.000440	62.769849	3.2
104	4744.499588	17.989610	0.000440	101.509694	3.1
105	5195.192475	18.045473	0.000439	126.966772	3.0
106	4795.473010	18.885208	0.000430	50.736957	2.3
107	4771.012741	18.901261	0.000430	94.927421	2.3
108	4798.019791	19.062276	0.000428	56.141133	2.7
109	4925.204719	19.051830	0.000428	203.114571	2.4
110	5064.021471	19.126878	0.000427	103.820810	2.1
111	4747.920228	19.112796	0.000427	31.889235	2.2
112	5007.205212	19.113448	0.000427	100.452545	4.3
113	4932.129011	19.129777	0.000427	182.973694	2.3
114	5005.263281	19.115693	0.000427	115.983093	2.4
115	4770.237694	20.115672	0.000417	76.497266	2.4
116	4856.416799	20.832859	0.000410	50.942000	2.7
117	4818.815304	20.820806	0.000410	54.572017	2.3
118	4922.256753	20.814602	0.000410	38.445249	2.2
119	4807.274178	20.834822	0.000410	111.937499	2.3
120	4938.657888	20.886050	0.000409	101.833331	2.2
121	4910.271472	21.864599	0.000400	44.137259	2.2
122	5023.324540	21.858798	0.000400	166.692018	2.0
123	4917.784379	21.869008	0.000400	45.856914	1.9
124	4823.875551	22.094040	0.000398	71.781637	1.9
125	4878.421033	22.082902	0.000398	90.372587	2.1
126	4963.083577	22.069606	0.000398	92.822720	4.6
127	4790.497555	22.055651	0.000398	57.361210	4.3
128	4999.189755	22.156886	0.000397	93.331341	4.3
129	5195.354434	22.195582	0.000397	59.610730	4.1
130	5110.795011	22.189181	0.000397	123.389926	4.1
131	5003.455152	22.375589	0.000395	84.133269	3.4
132	4766.036432	23.297305	0.000387	29.139237	3.0
133	5039.326662	23.314697	0.000387	51.214408	3.0
134	5101.027600	23.309004	0.000387	91.013152	2.8
135	4922.959316	23.362818	0.000387	58.692297	2.5
136	5077.387945	23.693366	0.000384	115.025659	2.5
137	4773.406547	23.680293	0.000384	38.113931	2.5
138	5070.920025	23.786105	0.000383	83.957190	2.4
139	4810.768045	23.800078	0.000383	88.483947	2.2
140	4767.264355	23.787469	0.000383	52.430866	2.2
141	4948.120350	23.808180	0.000383	106.882320	2.2
142	4965.864945	23.814347	0.000383	30.530287	2.3
143	4796.354041	23.802129	0.000383	145.025348	2.5
144	4957.405982	23.789498	0.000383	97.542796	2.4
145	4765.653549	23.775514	0.000383	75.580569	3.2
146	4605.957620	24.302588	0.000379	111.283805	2.5
147	5107.278396	24.289938	0.000379	97.901402	2.6
148	4924.129316	24.921046	0.000373	47.788143	2.5
149	4857.561882	24.981224	0.000373	114.766575	2.5
150	4863.882193	25.036641	0.000372	135.635998	2.3
151	4907.169627	26.035638	0.000365	110.618008	2.0
152	5090.166408	27.032033	0.000357	53.003786	2.0
153	4976.478355	27.359764	0.000355	28.297937	1.9
154	4902.163553	27.362810	0.000355	109.844475	1.9
155	5021.710196	27.352277	0.000355	183.755907	1.9
156	4967.415331	28.351952	0.000347	82.174715	1.9
157	4890.818962	28.337944	0.000348	116.064834	1.8
158	4844.776973	28.325112	0.000348	213.754711	1.8
159	4793.817346	29.325112	0.000341	70.950675	1.9
160	4660.801911	29.311031	0.000341	40.756876	1.9
161	4947.172387	29.299224	0.000341	70.358059	2.1
162	4754.191640	29.293633	0.000341	34.322914	4.0
163	4937.465736	29.296867	0.000341	29.637625	1.8
164	4958.471152	29.295304	0.000341	121.437183	1.8
165	5018.230430	29.335145	0.000341	41.545077	2.0
166	5019.838264	29.333809	0.000341	29.671676	2.0
167	4808.797958	29.332342	0.000341	109.164794	2.0
168	4749.478454	29.339288	0.000341	88.217272	1.9
169	4902.965903	29.406318	0.000340	97.685401	1.9
170	4815.411198	29.782115	0.000338	106.035947	2.1
171	4739.931565	30.092262	0.000336	109.639835	2.1
172	4860.610374	30.082957	0.000336	72.348752	2.3
173	4928.023094	30.657524	0.000332	65.055920	2.2
174	4953.490020	30.714984	0.000332	51.478413	2.2
175	4860.222505	30.718245	0.000332	34.204519	1.9
176	4713.514358	30.719936	0.000332	157.849215	1.9
177	4876.125228	30.716746	0.000332	162.905003	1.9
178	4982.413485	30.702663	0.000332	83.851523	2.0
179	4996.178466	30.688580	0.000332	127.158588	1.8
180	4873.870740	30.884794	0.000331	24.488428	1.9
181	4764.617291	30.876703	0.000331	78.531344	1.8
182	4922.329778	30.884121	0.000331	80.529881	1.9
183	4854.078744	30.874605	0.000331	96.089211	1.8
184	5003.981637	31.145066	0.000329	54.542526	1.9
185	4955.206248	31.132294	0.000329	131.058511	1.9
186	5014.065904	31.118355	0.000329	51.625808	1.9
187	4740.498344	31.106806	0.000329	167.326648	1.9
188	4777.985680	31.092990	0.000329	34.940008	1.8
189	4706.616347	31.113450	0.000329	94.797408	2.0
190	5040.246718	31.106135	0.000329	58.269964	2.1
191	4588.372363	31.092348	0.000329	140.215438	4.1
192	4999.100008	31.784635	0.000325	88.913569	4.0
193	4568.974579	32.707502	0.000319	64.700418	3.5
194	4999.982082	32.699731	0.000319	59.637797	3.4
195	4910.577779	32.686631	0.000319	60.877086	3.5
196	5034.791181	32.677285	0.000319	75.990893	2.6
197	4903.035484	32.666710	0.000320	75.275210	2.6
198	4832.491851	33.022292	0.000317	138.669659	2.6
199	4810.366474	33.123652	0.000317	70.600220	2.6
200	4768.583026	33.109625	0.000317	51.998966	2.7
201	4837.038805	33.130177	0.000317	124.388412	2.7
202	4853.221484	33.120023	0.000317	46.192435	2.8
203	4833.724136	33.154158	0.000317	75.342903	3.1
204	4665.101264	33.142376	0.000317	52.603879	3.6
205	5093.603344	33.153106	0.000317	84.408291	3.6
206	4953.519395	33.141911	0.000317	39.941966	3.1
207	4940.488620	33.220395	0.000316	74.178629	2.7
208	4778.858600	33.242111	0.000316	52.447495	2.7
209	4846.174406	33.234335	0.000316	22.567014	2.7
210	4993.728288	33.227944	0.000316	100.783532	2.1
211	4900.040537	33.225721	0.000316	109.514316	2.1
212	5032.873374	33.939039	0.000312	49.574529	2.2
213	4894.091905	33.940922	0.000312	66.653175	2.1
214	4757.746923	33.939787	0.000312	189.033703	2.1
215	4768.926409	33.925706	0.000312	102.164314	1.9
216	4899.144295	33.911622	0.000312	50.984261	1.9
217	4651.113223	33.905763	0.000312	69.087061	1.9
218	4804.584798	33.910468	0.000312	74.337284	1.9
219	4924.997382	33.948712	0.000312	38.171240	1.9
220	5205.237833	33.997329	0.000312	156.913420	1.9
221	4991.735960	34.215684	0.000311	145.345384	1.9
222	4769.621811	34.201601	0.000311	99.681222	1.8
223	4707.630854	34.187518	0.000311	71.408729	1.8
224	4941.741815	34.672690	0.000308	179.696623	1.9
225	5081.901573	34.658611	0.000308	31.594609	1.9
226	4915.816771	34.666455	0.000308	63.097692	1.8
227	4524.346409	34.658963	0.000308	89.921496	1.8
228	4818.967051	34.743446	0.000308	79.479921	1.8
229	4841.880322	34.869282	0.000307	101.343202	1.8
230	4927.094605	35.715938	0.000302	117.194513	1.8
231	4812.076674	35.701867	0.000302	61.337302	1.9
232	4839.532103	35.801363	0.000302	45.532784	1.9
233	4989.888519	35.790690	0.000302	41.722273	1.9
234	4907.589177	35.787194	0.000302	130.127387	1.9
235	4644.127111	35.968625	0.000301	61.459236	1.8
236	5089.042198	35.974934	0.000301	121.478179	1.8
237	4763.007845	36.046330	0.000301	129.308313	1.8
238	4995.697713	36.032252	0.000301	49.442524	1.8
239	4881.053224	36.513140	0.000298	93.224741	1.8
240	4947.461171	36.500137	0.000298	68.990772	1.8
241	5089.101739	36.492069	0.000298	32.728957	1.8
242	4907.175006	36.511407	0.000298	58.112497	1.8
243	5046.636387	36.505062	0.000298	44.903257	1.8
244	4791.625794	36.493075	0.000298	104.445317	1.9
245	4703.438307	36.649085	0.000297	70.715715	1.9
246	4782.032627	36.637456	0.000298	49.364777	1.9
247	5045.961950	36.645597	0.000297	22.166778	2.0
248	4803.312861	36.641120	0.000297	36.087060	2.0
249	4987.353017	36.636903	0.000298	40.160342	2.0
250	4729.772305	36.640678	0.000298	98.611050	2.6
251	4799.246697	36.683930	0.000297	103.445120	4.4
252	4681.440238	36.670938	0.000297	75.066747	4.3
253	4721.727725	36.786814	0.000297	69.010320	4.1
254	5037.117578	36.995719	0.000296	81.129191	4.1
255	4951.230138	37.239175	0.000294	57.469198	4.1
256	4852.092093	37.226614	0.000295	57.025547	3.0
257	4784.717564	37.305712	0.000294	28.365489	3.0
258	4598.032816	37.298066	0.000294	58.490181	3.0
259	5140.211045	37.296743	0.000294	42.190542	2.7
260	4892.218270	37.292682	0.000294	83.286782	2.6
261	4928.219190	37.359586	0.000294	67.839018	2.5
262	4453.795921	37.345676	0.000294	120.915358	2.5
263	4724.552615	37.440133	0.000293	63.595104	4.3
264	4684.130104	38.082637	0.000290	66.325977	4.6
265	4806.416152	38.123719	0.000290	101.375400	4.6
266	4916.796615	38.489515	0.000288	59.218415	4.1
267	4819.884039	38.748451	0.000287	95.717771	1.9
268	5001.006876	38.735482	0.000287	38.497172	1.8
269	4881.671411	38.853556	0.000287	78.136000	3.5
270	4928.546731	38.843952	0.000287	65.174508	2.3
271	4896.561532	38.832403	0.000287	53.260172	2.3
272	4805.255439	38.853954	0.000286	59.569679	2.4
273	5023.624180	38.848819	0.000287	131.603761	2.4
274	4729.291303	39.608929	0.000283	114.522709	4.5
275	4865.545384	40.607294	0.000278	113.636391	4.3
276	4851.014865	40.593211	0.000278	86.542572	4.1
277	4921.015378	40.579175	0.000278	70.084677	4.0
278	4981.574666	40.565553	0.000279	119.676795	3.6
279	5108.191219	40.655139	0.000278	105.577664	3.6
280	4883.134799	41.460111	0.000275	58.164200	3.4
281	4907.925982	41.452433	0.000275	31.812750	2.9
282	4828.289119	41.455623	0.000275	112.174661	4.5
283	4727.526237	41.444361	0.000275	59.883352	4.4
284	4878.828810	41.665245	0.000274	40.506549	3.4
285	4999.643250	41.653522	0.000274	56.030984	4.3
286	4802.682551	41.644520	0.000274	62.642958	4.4
287	4934.659420	41.667442	0.000274	71.503894	4.5
288	5113.237399	41.654257	0.000274	110.348206	4.4
289	4569.809095	41.690851	0.000274	102.288135	4.6
290	4894.793662	41.676888	0.000274	91.448019	4.3
291	4816.620021	41.662914	0.000274	84.111377	4.2
292	4905.019621	41.721540	0.000273	27.094730	4.2
293	4918.241705	41.721940	0.000273	88.268988	4.5
294	4800.328963	41.713599	0.000273	32.334470	4.4
295	4849.271190	41.708773	0.000273	55.724266	4.0
296	4682.705213	41.701073	0.000273	83.957413	4.0
297	5044.087785	41.687496	0.000274	74.483883	3.4
298	4838.552106	41.682863	0.000274	69.988088	3.0
299	4719.163324	41.817147	0.000273	58.555418	3.0
300	4843.908169	41.804120	0.000273	53.812331	3.0
301	4741.563646	41.792932	0.000273	116.751567	2.4
302	5114.245715	41.803473	0.000273	35.331250	2.4
303	5043.145807	41.797021	0.000273	70.381162	2.4
304	4929.202864	41.788334	0.000273	72.351699	2.3
305	4750.304969	41.774841	0.000273	57.678638	2.0
306	4802.547155	41.797513	0.000273	56.707600	2.1
307	4973.582685	41.785223	0.000273	66.755463	2.1
308	4808.730544	41.822415	0.000273	76.361940	2.0
309	4732.973367	41.829236	0.000273	119.870034	2.4
310	5022.570262	41.815720	0.000273	107.035755	2.5
311	4744.115381	42.594473	0.000270	110.657513	1.9
312	4544.022514	43.573304	0.000266	111.681853	1.9
313	5017.220092	44.565567	0.000262	103.577460	1.9
314	4472.975703	45.530976	0.000258	24.690742	1.9
315	4971.472135	45.544576	0.000258	96.903501	1.9
316	5125.134622	45.535467	0.000258	123.689820	1.9
317	4511.340845	46.496043	0.000254	92.002636	1.9
318	4755.942710	47.459096	0.000250	40.871318	1.9
319	4712.266381	47.454788	0.000251	79.619330	1.9
320	4954.707831	47.446881	0.000251	83.842989	2.2
321	4817.237015	47.845985	0.000249	105.308236	4.7
322	4918.855309	47.831946	0.000249	95.767536	4.6
323	4759.736868	48.794051	0.000246	75.437713	4.5
324	4863.044907	49.390355	0.000244	42.574204	3.3
325	4682.044754	49.379706	0.000244	45.490777	2.4
326	4671.072382	49.375140	0.000244	72.222662	4.5
327	4878.134770	49.362611	0.000244	155.165016	4.5
328	4909.542433	49.348824	0.000244	32.319595	4.3
329	4875.623698	49.336118	0.000244	96.440220	4.5
330	4747.629787	49.365209	0.000244	80.881208	3.4
331	4844.690669	49.351340	0.000244	109.463931	1.9
332	4952.550289	49.339103	0.000244	86.893586	2.6
333	4783.254933	49.326187	0.000244	26.980596	4.5
334	4741.972513	49.323844	0.000244	98.089317	4.2
335	4693.782073	49.334291	0.000244	53.555635	4.3
336	4991.549034	49.324384	0.000244	36.006171	4.5
337	4577.246248	49.321969	0.000244	88.581325	8.3
338	4832.136388	49.311669	0.000244	62.445076	4.6
339	4750.375259	49.380572	0.000244	121.964562	4.0
340	5102.318093	49.381172	0.000244	279.069121	4.0
341	4715.327838	50.381063	0.000240	90.569710	4.0
342	4603.485411	51.381062	0.000237	26.680939	3.0
343	4676.237473	51.372143	0.000237	56.534077	3.0
344	4708.983941	51.367344	0.000237	50.993988	3.1
345	4555.814022	51.356456	0.000237	93.054940	3.2
346	4769.800000	51.366766	0.000237	27.230358	3.0
347	4697.771250	51.358100	0.000237	62.945495	3.0
348	4938.846353	51.366714	0.000237	70.015681	2.6
349	4853.736180	51.472344	0.000237	87.400560	2.6
350	4597.513890	51.882410	0.000235	79.413413	2.6
351	5045.079798	52.222744	0.000234	88.294086	2.6
352	4735.154754	52.804484	0.000232	56.224805	2.2
353	4681.332609	52.820687	0.000232	77.020699	2.3
354	5140.698308	52.845397	0.000232	67.269031	2.3
355	4573.831247	53.070944	0.000232	64.323461	2.2
356	4866.998053	53.057531	0.000232	70.607146	2.3
357	4969.264847	53.044908	0.000232	72.100212	2.2
358	4949.891979	53.112187	0.000231	194.104638	2.2
359	4916.579065	53.098211	0.000231	44.589622	2.2
360	4703.267422	53.084194	0.000231	83.758093	2.3
361	4986.178678	53.127901	0.000231	42.349904	2.1
362	5067.056934	53.186871	0.000231	44.588977	2.1
363	4795.136738	53.177057	0.000231	63.280790	2.1
364	4867.854644	53.196962	0.000231	67.033318	2.1
365	4856.529100	53.295917	0.000231	85.143652	2.1
366	4909.790627	53.282026	0.000231	119.290669	2.1
367	4845.283653	53.267952	0.000231	110.063792	2.1
368	4988.081933	53.255849	0.000231	54.458439	2.1
369	4836.085002	53.416108	0.000230	27.774479	2.1
370	4970.722021	53.429518	0.000230	104.938963	2.0
371	4878.189479	53.419454	0.000230	36.626698	2.4
372	4832.542529	53.408072	0.000230	89.089610	4.2
373	4750.845637	53.397609	0.000230	24.544133	4.0
374	4888.812052	53.409882	0.000230	74.806611	4.0
375	4969.645121	53.412953	0.000230	93.927171	4.0
376	4654.730562	53.756313	0.000229	56.051376	3.0
377	4897.426356	53.787397	0.000229	107.695682	2.9
378	4849.563145	53.773489	0.000229	99.274181	3.0
379	4894.657974	53.779944	0.000229	30.152103	2.6
380	4909.575744	53.769229	0.000229	67.242433	2.6
381	4771.025860	53.768512	0.000229	78.914291	2.7
382	4909.996188	53.771438	0.000229	108.922501	3.1
383	4853.153180	54.633068	0.000227	103.345961	2.2
384	4594.556833	55.620263	0.000224	69.991227	2.2
385	4733.116093	55.926385	0.000223	100.226544	2.1
386	4898.759595	56.500577	0.000221	122.750164	2.3
387	4890.516482	57.479164	0.000219	122.411144	2.2
388	4813.807673	57.948165	0.000217	29.687569	2.1
389	4743.873810	57.943937	0.000217	34.459137	2.2
390	4854.008164	57.942439	0.000217	53.302949	2.1
391	4941.728535	57.934803	0.000217	72.040969	4.2
392	4826.592401	58.001533	0.000217	68.307001	1.9
393	4486.919737	58.001854	0.000217	132.960137	1.9
394	4906.720839	57.988954	0.000217	103.874372	1.9
395	4956.983952	58.898433	0.000215	72.442298	1.8
396	4967.475531	59.599708	0.000213	90.618747	1.9
397	4823.080939	59.974580	0.000212	89.545446	7.2
398	4734.629735	59.961329	0.000212	98.824404	4.9
399	4829.076838	60.519095	0.000210	49.546178	4.2
400	4535.075155	60.507642	0.000210	46.178077	4.3
401	4653.899674	60.507382	0.000210	80.021741	4.0
402	4928.536526	60.511154	0.000210	61.427466	4.1
403	4974.958499	60.497842	0.000210	53.642989	3.0
404	5000.472646	60.496954	0.000210	91.763073	3.1
405	4763.128323	60.736698	0.000210	87.623568	3.0
406	4900.745761	60.825005	0.000210	83.702795	2.7
