1:ItNr	2:Metric	3a:Time	3b:StepSize	4:||Gradient||	Time[ms]
0	39298.982026	0.000000	0.000167	9955.982723	239.3
1	24092.843659	0.000000	0.000167	9648.794602	2.5
2	10318.407107	0.000000	0.000167	6493.674417	2.5
3	4813.499670	0.000000	0.000167	3308.364679	2.4
4	3393.565134	0.000000	0.000167	1720.885304	2.5
5	3211.819176	0.000000	0.000167	1235.871530	2.6
6	2826.591047	0.000000	0.000167	577.571584	2.7
7	2838.497746	0.000000	0.000167	491.698280	2.6
8	2841.601938	0.000000	0.000167	505.991398	2.5
9	2715.443657	0.000000	0.000167	231.219933	1.8
10	2628.095519	0.000000	0.000167	309.084008	1.8
11	2637.773959	0.000000	0.000167	277.258785	1.8
12	2699.656441	0.000000	0.000167	218.050928	2.3
13	2614.020960	0.000000	0.000167	274.875615	2.1
14	2802.140452	0.000000	0.000167	227.621114	2.5
15	2811.471230	0.000000	0.000167	215.632431	2.2
16	2655.934562	0.000000	0.000167	209.848929	2.2
17	2649.346982	0.000000	0.000167	196.611236	2.2
18	2712.508164	0.000000	0.000167	221.960351	2.0
19	2673.331916	0.000000	0.000167	245.647266	2.1
20	2701.914421	0.000000	0.000167	204.168939	2.1
21	2592.931070	0.000000	0.000167	196.436111	2.0
22	2637.749253	0.000000	0.000167	190.628094	2.6
23	2470.663997	0.000000	0.000167	185.724590	2.0
24	2605.250128	0.000000	0.000167	272.697427	1.9
25	2541.162462	0.000000	0.000167	242.194024	1.9
26	2497.254398	0.003176	0.000167	179.308655	1.9
27	2554.495927	0.000000	0.000167	190.451825	2.0
28	2574.166223	0.000000	0.000167	210.529834	2.0
29	2473.974548	0.000000	0.000167	192.383313	2.0
30	2603.207052	0.000000	0.000167	210.950646	1.9
31	2633.206739	0.000000	0.000167	198.492997	2.2
32	2699.690847	0.000000	0.000167	180.965357	4.6
33	2618.321219	0.000000	0.000167	212.144766	4.7
34	2522.513257	0.000000	0.000167	221.737347	4.7
35	2478.077250	0.000000	0.000167	168.770368	2.8
36	2562.816631	0.000000	0.000167	292.808948	2.4
37	2623.242563	0.000000	0.000167	357.952111	2.4
38	2603.834618	0.212593	0.000165	226.404767	2.9
39	2531.848823	0.230325	0.000165	160.129296	2.9
40	2399.003882	0.220748	0.000165	233.116176	2.9
41	2541.924075	0.210454	0.000165	190.419786	2.4
42	2559.314902	0.205753	0.000165	172.644703	2.3
43	2536.416438	0.195072	0.000166	261.203664	4.7
44	2449.333408	0.184498	0.000166	236.582618	4.8
45	2543.249857	0.193315	0.000166	175.252702	4.7
46	2527.377988	0.184458	0.000166	158.544835	4.7
47	2491.733580	0.174345	0.000166	162.275669	4.5
48	2622.247166	0.164437	0.000166	184.420672	4.1
49	2526.421752	0.155593	0.000166	176.655219	4.1
50	2613.397413	0.146452	0.000166	179.644057	4.1
51	2598.762656	0.137353	0.000166	198.502975	3.8
52	2436.260602	0.128283	0.000166	188.980136	3.8
53	2547.908953	0.122331	0.000166	163.137589	3.4
54	2546.510662	0.112471	0.000166	200.873974	3.0
55	2466.000812	0.102187	0.000166	229.157208	2.7
56	2450.814905	0.095680	0.000166	174.828473	2.7
57	2472.154298	0.084875	0.000166	170.250950	4.1
58	2543.102133	0.074983	0.000167	268.472851	2.8
59	2558.913080	0.066299	0.000167	182.264340	2.9
60	2492.039436	0.060180	0.000167	172.530756	2.8
61	2417.827637	0.052032	0.000167	171.444063	4.8
62	2429.549385	0.044404	0.000167	145.438142	4.9
63	2530.278883	0.034822	0.000167	209.733755	4.8
64	2452.801532	0.027955	0.000167	159.600613	3.8
65	2524.631063	0.019413	0.000167	158.073129	4.7
66	2490.400049	0.010637	0.000167	164.847259	4.6
67	2371.724637	0.002313	0.000167	143.174802	3.9
68	2340.156365	0.000000	0.000167	259.317826	3.9
69	2395.017598	0.000000	0.000167	242.500923	3.5
70	2427.398044	0.030998	0.000167	204.122881	3.0
71	2380.495425	0.019360	0.000167	158.775498	3.0
72	2497.717180	0.015720	0.000167	144.411840	3.0
73	2296.267827	0.007085	0.000167	155.747330	3.0
74	2436.632863	0.000000	0.000167	211.400736	2.8
75	2396.824881	0.000000	0.000167	260.789826	2.7
76	2417.009848	0.009297	0.000167	204.619396	2.6
77	2311.825704	0.000000	0.000167	146.327318	2.5
78	2505.870291	0.000000	0.000167	159.925238	3.4
79	2318.232963	0.000000	0.000167	154.219137	3.4
80	2457.169200	0.000000	0.000167	157.209373	4.0
81	2428.702971	0.000000	0.000167	171.758495	3.9
82	2485.724563	0.000000	0.000167	177.178189	3.3
83	2444.909060	0.000000	0.000167	184.167659	3.6
84	2433.262097	0.000000	0.000167	178.487486	3.7
85	2353.332852	0.000000	0.000167	204.445361	3.5
86	2405.865586	0.000000	0.000167	211.617470	3.6
87	2325.969768	0.000000	0.000167	126.738643	3.6
88	2288.230446	0.000000	0.000167	152.051273	2.7
89	2257.879948	0.000000	0.000167	233.270408	2.8
90	2389.435649	0.000000	0.000167	195.289515	4.5
91	2396.583758	0.000000	0.000167	132.061892	3.2
92	2347.625958	0.000000	0.000167	132.140944	3.3
93	2304.791416	0.000000	0.000167	196.177543	3.3
94	2403.034367	0.000000	0.000167	177.153177	3.3
95	2469.169963	0.000000	0.000167	255.259749	3.6
96	2412.994214	0.000000	0.000167	207.819605	3.9
97	2376.031406	0.021402	0.000167	144.176874	3.2
98	2353.819071	0.014010	0.000167	163.064315	3.2
99	2342.273602	0.004677	0.000167	118.839134	4.8
100	2199.094114	0.000000	0.000167	138.608742	5.0
101	2383.152522	0.000000	0.000167	137.692968	4.8
102	2391.613537	0.000000	0.000167	274.711524	4.8
103	2404.895206	0.000000	0.000167	133.815039	4.6
104	2330.460770	0.000216	0.000167	219.331549	3.6
105	2350.897378	0.000000	0.000167	118.779869	3.7
106	2398.807744	0.000000	0.000167	128.402267	3.7
107	2261.159351	0.000000	0.000167	161.833909	3.8
108	2199.384933	0.000000	0.000167	188.037236	3.8
109	2348.449556	0.000000	0.000167	139.818088	3.0
110	2386.788976	0.000000	0.000167	116.158123	2.9
111	2310.344102	0.000000	0.000167	136.703493	3.0
112	2335.728768	0.000000	0.000167	154.210929	3.4
113	2411.179911	0.000000	0.000167	133.081779	3.4
114	2262.304159	0.000000	0.000167	124.946573	3.3
115	2313.773753	0.000000	0.000167	119.386023	3.0
116	2256.690880	0.000000	0.000167	116.464947	2.7
117	2394.087100	0.000000	0.000167	195.776811	2.2
118	2390.018658	0.000000	0.000167	115.388786	2.1
119	2208.371537	0.000000	0.000167	312.881258	2.2
120	2241.746047	0.000000	0.000167	235.154196	2.2
121	2300.192721	0.210558	0.000165	125.452392	2.1
122	2288.581790	0.201959	0.000166	133.906111	2.1
123	2386.239883	0.196745	0.000166	139.390019	2.0
124	2240.767551	0.188654	0.000166	110.229756	2.2
125	2275.336104	0.182459	0.000166	129.084450	6.2
126	2261.236490	0.176897	0.000166	209.130643	2.2
127	2334.689938	0.178481	0.000166	142.042958	2.7
128	2256.089903	0.168399	0.000166	119.496369	2.7
129	2308.722403	0.160493	0.000166	114.759770	2.6
130	2316.846582	0.154076	0.000166	176.590728	2.6
131	2259.401122	0.147089	0.000166	191.751214	2.1
132	2325.144107	0.150329	0.000166	156.854003	2.1
133	2290.574897	0.151574	0.000166	163.570409	2.3
134	2297.211921	0.142385	0.000166	174.062732	2.1
135	2266.964835	0.146779	0.000166	130.433240	2.0
136	2157.176612	0.138749	0.000166	120.212148	2.1
137	2282.465807	0.131708	0.000166	135.644578	2.5
138	2368.823076	0.129317	0.000166	125.674387	4.8
139	2208.008697	0.121755	0.000166	129.628634	4.9
140	2182.506157	0.115646	0.000166	129.417283	4.7
141	2292.479448	0.108146	0.000166	99.229804	3.5
142	2305.226406	0.102537	0.000166	161.746164	2.9
143	2293.007922	0.095646	0.000166	234.122146	3.0
144	2302.290800	0.104794	0.000166	214.783909	2.8
145	2307.323470	0.168414	0.000166	123.265532	2.9
146	2361.255442	0.171350	0.000166	134.807186	2.8
147	2166.300087	0.169542	0.000166	154.740376	2.5
148	2227.485967	0.173089	0.000166	167.573863	2.3
149	2295.787287	0.163483	0.000166	113.460696	2.4
150	2229.372545	0.161271	0.000166	142.142216	4.6
151	2267.153087	0.155576	0.000166	155.478655	4.5
152	2247.837987	0.155201	0.000166	128.127229	4.5
153	2272.791718	0.154235	0.000166	182.064599	3.6
154	2219.949963	0.159705	0.000166	175.552458	3.3
155	2189.832604	0.178150	0.000166	110.933173	3.4
156	2293.812416	0.174328	0.000166	137.251690	2.7
157	2276.977054	0.167882	0.000166	137.441810	2.8
158	2280.932632	0.165800	0.000166	149.108637	2.8
159	2181.685336	0.159410	0.000166	185.060014	2.8
160	2332.271987	0.156257	0.000166	159.115907	2.5
161	2173.411730	0.163338	0.000166	238.322329	2.5
162	2145.860921	0.156259	0.000166	122.535640	2.6
163	2204.693560	0.159105	0.000166	99.407207	2.6
164	2246.862486	0.156089	0.000166	109.783335	2.4
165	2209.267150	0.150460	0.000166	141.396589	2.3
166	2200.533895	0.147779	0.000166	96.450399	2.3
167	2106.989196	0.141427	0.000166	144.347618	2.3
168	2308.607312	0.135635	0.000166	142.357807	2.2
169	2196.083924	0.139397	0.000166	154.928478	2.3
170	2200.418808	0.130081	0.000166	123.815239	2.3
171	2143.597123	0.127429	0.000166	160.408985	2.2
172	2223.375223	0.126207	0.000166	126.929888	2.1
173	2216.050728	0.123871	0.000166	209.760991	2.1
174	2285.191811	0.132426	0.000166	123.481916	2.1
175	2225.853702	0.125024	0.000166	191.652852	2.0
176	2209.531047	0.127563	0.000166	196.047093	2.0
177	2177.126583	0.116461	0.000166	160.270188	2.2
178	2295.584356	0.131963	0.000166	145.957567	2.2
179	2189.783257	0.123503	0.000166	84.061830	2.2
180	2260.690802	0.118398	0.000166	217.575179	2.2
181	2148.539740	0.113627	0.000166	296.235682	2.2
182	2173.129786	0.333864	0.000164	133.641959	2.0
183	2124.155547	0.360921	0.000164	115.449685	2.0
184	2197.563031	0.353705	0.000164	209.808903	2.0
185	2210.143581	0.359184	0.000164	186.654109	2.0
186	2084.146692	0.391637	0.000164	140.597813	1.9
187	2177.897384	0.403813	0.000164	105.446731	2.0
188	2175.470845	0.396521	0.000164	112.318931	1.9
189	2156.695059	0.393369	0.000164	214.003367	1.9
190	2141.916061	0.384426	0.000164	86.185448	2.7
191	2156.656803	0.380542	0.000164	124.360287	2.0
192	2278.782737	0.375827	0.000164	189.111310	2.5
193	2318.513739	0.381574	0.000164	192.523991	2.0
194	2330.141212	0.370628	0.000164	89.128949	2.0
195	2072.346288	0.364075	0.000164	216.042953	2.3
196	2130.852410	0.361757	0.000164	243.707633	2.0
197	2149.813345	0.368819	0.000164	120.362406	2.0
198	2117.004135	0.362964	0.000164	175.190555	2.4
199	2180.494667	0.357968	0.000164	199.074236	1.9
200	2193.034606	0.347136	0.000164	290.934247	2.0
201	2149.773726	0.476023	0.000163	99.036805	2.1
202	2115.725423	0.483461	0.000163	110.147285	2.1
203	2194.657976	0.477344	0.000163	130.739843	2.0
204	2173.649970	0.474957	0.000163	93.136292	2.0
205	2129.280596	0.470534	0.000163	91.199447	1.9
206	2075.738736	0.466158	0.000163	176.805932	2.0
207	2176.671957	0.461486	0.000164	254.425856	2.0
208	2182.929180	0.474029	0.000163	241.197921	1.9
209	2150.230285	0.679833	0.000162	184.246526	2.0
210	2202.192961	0.735375	0.000161	167.092102	2.0
211	2177.074321	0.725054	0.000162	168.346342	2.0
212	2034.849594	0.740336	0.000161	161.941133	2.0
213	2195.276541	0.731096	0.000161	97.510907	2.0
214	2205.666873	0.732264	0.000161	245.110026	2.0
215	2101.900309	0.725471	0.000162	75.153874	2.0
216	2238.796103	0.721942	0.000162	171.680705	1.9
217	2121.749734	0.718417	0.000162	92.843769	1.9
218	2201.202841	0.712615	0.000162	100.922475	2.0
219	1964.608675	0.709383	0.000162	84.957918	2.0
220	2074.919849	0.706534	0.000162	91.853121	4.0
221	2184.862583	0.702124	0.000162	184.616860	2.0
222	2036.195239	0.699517	0.000162	203.290930	2.0
223	2072.372889	0.730403	0.000161	91.827619	4.8
224	2094.926465	0.723715	0.000162	101.935980	4.7
225	2182.498500	0.722631	0.000162	170.775662	3.9
226	2238.765710	0.729556	0.000162	213.949526	2.9
227	2143.246509	0.721837	0.000162	172.991003	2.9
228	2121.341834	0.743570	0.000161	76.819214	2.8
229	2237.446816	0.742005	0.000161	224.244157	2.7
230	2115.532301	0.738037	0.000161	113.773712	2.2
231	2138.318300	0.730370	0.000161	206.328858	5.4
232	2162.397834	0.725503	0.000162	150.258970	2.5
233	2138.873844	0.732006	0.000161	69.033097	2.8
234	2200.032861	0.728986	0.000162	94.850065	2.8
235	2082.624861	0.726004	0.000162	139.748309	2.8
236	2186.784118	0.726009	0.000162	130.408573	2.8
237	2108.735024	0.728065	0.000162	137.330871	2.6
238	2058.395143	0.731102	0.000161	195.498224	2.4
239	2048.677094	0.722919	0.000162	160.632714	2.5
240	2074.133992	0.747012	0.000161	86.046515	2.2
241	2109.736028	0.749209	0.000161	174.029965	2.3
242	2122.599447	0.746877	0.000161	108.837564	2.3
243	2072.323131	0.741085	0.000161	93.983697	2.3
244	2110.874462	0.738780	0.000161	92.912476	2.1
245	2070.168314	0.734916	0.000161	79.572186	2.1
246	2068.025511	0.733059	0.000161	100.393742	2.0
247	2117.018669	0.729306	0.000162	128.409884	2.1
248	2092.964228	0.728614	0.000162	78.249025	2.0
249	2069.497052	0.725945	0.000162	79.809828	1.9
250	2053.970872	0.722247	0.000162	81.953997	1.9
251	2115.888424	0.718503	0.000162	89.519635	2.0
252	2076.662778	0.714143	0.000162	191.154601	2.0
253	2038.375884	0.717883	0.000162	232.169273	1.9
254	2064.811758	0.766713	0.000161	153.564853	2.0
255	1964.676596	0.814094	0.000161	177.451604	1.9
256	2056.362540	0.815377	0.000161	103.925837	1.9
257	2086.753529	0.823970	0.000161	108.680837	1.9
258	2095.839236	0.818966	0.000161	83.653363	1.9
259	2004.662640	0.817341	0.000161	137.807855	1.9
260	2057.419677	0.812053	0.000161	115.654455	1.9
261	2187.808457	0.807444	0.000161	102.519159	1.9
262	2142.292039	0.801495	0.000161	89.718422	1.9
263	1955.824361	0.796634	0.000161	98.398755	1.9
264	2172.667678	0.794987	0.000161	116.602420	1.9
265	1929.292069	0.788730	0.000161	110.693694	1.9
266	2037.867178	0.790145	0.000161	65.050792	1.9
267	2028.271685	0.786880	0.000161	189.672013	1.9
268	2101.235321	0.785756	0.000161	136.555536	1.9
269	2092.991128	0.806238	0.000161	154.912759	2.0
270	2188.685061	0.797541	0.000161	102.619773	1.9
271	2015.300069	0.805054	0.000161	92.689667	1.9
272	2033.548698	0.802509	0.000161	108.248864	1.9
273	1964.644391	0.798080	0.000161	113.247866	2.0
274	2025.118489	0.800583	0.000161	91.289608	1.9
275	2098.026554	0.795025	0.000161	88.371898	1.9
276	2135.288181	0.790500	0.000161	76.013789	1.9
277	2032.038839	0.787603	0.000161	185.761474	2.0
278	2065.130374	0.787448	0.000161	115.033269	1.9
279	1968.797600	0.801801	0.000161	201.128416	1.9
280	1991.244594	0.792951	0.000161	186.474821	1.9
281	1994.841509	0.798108	0.000161	116.728861	2.0
282	2095.899485	0.789836	0.000161	169.625440	2.1
283	2063.112387	0.786959	0.000161	184.932853	2.0
284	2089.338247	0.786615	0.000161	143.964001	2.0
285	2132.162856	0.804241	0.000161	248.475589	2.0
286	2150.782967	0.797783	0.000161	182.391959	1.9
287	2090.675548	0.914527	0.000160	124.383919	1.9
288	1967.023143	0.918664	0.000160	62.628058	1.9
289	2049.587332	0.917334	0.000160	143.863320	1.9
290	2133.757527	0.915983	0.000160	264.337346	1.9
291	2021.989093	0.951640	0.000160	174.863867	1.9
292	2118.046226	0.940111	0.000160	140.132809	1.9
293	2038.302083	0.955799	0.000160	114.951629	1.9
294	2001.972765	0.950130	0.000160	131.568334	1.9
295	2029.712191	0.944853	0.000160	130.892574	2.0
296	2095.540945	0.956868	0.000160	126.076490	2.0
297	2152.852425	0.960534	0.000160	66.701201	1.9
298	2003.283349	0.958176	0.000160	78.122704	1.9
299	1999.447258	0.955022	0.000160	126.245018	2.1
300	2101.191931	0.954879	0.000160	157.750471	4.8
301	2123.391389	0.969927	0.000160	78.954897	3.6
302	2083.217716	0.967360	0.000160	69.597455	1.9
303	2099.387995	0.966353	0.000160	122.503613	2.2
304	2109.736497	0.965215	0.000160	113.898290	2.8
305	2044.095326	0.967768	0.000160	114.159588	2.4
306	2044.854592	0.974079	0.000160	146.320334	2.4
307	2119.318987	0.971363	0.000160	101.373659	2.3
308	2123.632159	0.971154	0.000160	73.450211	2.2
309	2012.790377	0.971925	0.000160	110.410747	2.3
310	1949.543280	0.972848	0.000160	168.320275	2.2
311	2069.598001	0.984933	0.000160	123.565274	2.4
312	2114.031326	0.998717	0.000160	109.208549	4.6
313	2095.964104	0.992699	0.000160	177.770276	4.8
314	2028.764142	1.005146	0.000159	199.360753	4.0
315	2047.534693	1.013887	0.000159	204.985515	4.8
316	2065.385616	1.093811	0.000159	243.651058	3.4
317	2003.266031	1.135987	0.000159	150.030662	3.1
318	2022.233327	1.210268	0.000158	84.616747	3.1
319	1984.607976	1.208742	0.000158	69.741172	3.0
320	1972.171330	1.208536	0.000158	139.341812	2.4
321	2050.236142	1.204331	0.000158	118.831686	2.4
322	1952.918381	1.200003	0.000158	137.594432	2.3
323	2005.756661	1.210984	0.000158	76.237779	2.4
324	2029.223707	1.205210	0.000158	215.943640	2.5
325	1982.504385	1.205082	0.000158	56.801520	2.5
326	2104.491479	1.207304	0.000158	138.459428	2.4
327	2146.920352	1.208187	0.000158	274.081253	2.5
328	2098.407260	1.270867	0.000158	236.745632	2.0
329	1996.349142	1.260115	0.000158	355.801341	2.0
330	2016.811246	1.645425	0.000155	170.567002	2.0
331	2109.809545	1.913751	0.000153	109.373834	1.9
332	2170.230655	1.905871	0.000153	112.225975	1.9
333	2014.080518	1.899793	0.000153	67.379273	2.0
334	1951.245658	1.900581	0.000153	111.564023	1.9
335	2153.164592	1.897544	0.000153	87.071217	1.9
336	1957.687822	1.893553	0.000153	125.821415	2.0
337	2012.920161	1.895973	0.000153	301.532363	1.9
338	2104.102813	1.893963	0.000153	312.964969	2.0
339	2056.031399	2.677846	0.000148	203.591810	1.9
340	2029.932548	2.889049	0.000147	97.829831	2.0
341	2098.530827	2.896228	0.000147	60.525361	2.0
342	2056.968109	2.892973	0.000147	255.256225	1.9
343	2043.916540	2.897709	0.000147	91.050589	1.9
344	1961.907011	2.912224	0.000147	143.664104	1.9
345	2147.584780	2.906228	0.000147	88.871785	1.9
346	2002.249126	2.913980	0.000147	71.117894	2.0
347	1950.824390	2.911185	0.000147	118.940024	1.9
348	2067.418554	2.909396	0.000147	134.603733	1.9
349	2123.632206	2.904016	0.000147	102.959807	1.9
350	2106.696770	2.898629	0.000147	70.617772	1.9
351	1992.450386	2.894175	0.000147	67.581846	1.9
352	1965.111620	2.893322	0.000147	257.948981	2.1
353	2005.534622	2.898917	0.000147	98.979634	4.7
354	1961.083981	2.919824	0.000147	105.090847	4.6
355	2056.652845	2.914059	0.000147	63.861826	3.7
356	2138.442089	2.914668	0.000147	112.503984	2.4
357	1953.369358	2.915333	0.000147	143.229064	2.4
358	1991.595020	2.925936	0.000147	67.105654	2.4
359	2058.128292	2.927927	0.000147	100.156790	2.6
360	1999.195673	2.928543	0.000147	164.360231	2.6
361	2063.575447	2.921837	0.000147	197.835907	2.6
362	1985.850970	2.940918	0.000147	163.976952	2.6
363	2040.404520	2.930586	0.000147	76.690594	2.8
364	1994.533630	2.935686	0.000147	139.246213	2.8
365	2018.461614	2.929987	0.000147	80.607308	3.0
366	1979.814725	2.935593	0.000147	169.297943	3.6
367	1996.305121	2.942372	0.000147	88.944582	4.9
368	2050.211603	2.936208	0.000147	63.185211	4.8
369	2076.775829	2.934621	0.000147	109.629018	4.1
370	1995.117422	2.932532	0.000147	92.263375	3.3
371	2062.943172	2.927216	0.000147	143.215551	4.9
372	2039.509698	2.935165	0.000147	65.498384	4.1
373	1953.785862	2.931050	0.000147	133.290315	3.4
374	2053.470184	2.928579	0.000147	103.712794	3.8
375	1954.852102	2.939052	0.000147	257.785922	3.7
376	2002.549816	2.937463	0.000147	68.732207	2.8
377	2114.995195	2.953472	0.000147	77.261315	2.8
378	1931.641492	2.954125	0.000147	89.004669	2.8
379	1994.392932	2.955467	0.000146	65.000218	3.0
380	1980.945790	2.956666	0.000146	62.892065	4.6
381	1964.384599	2.954081	0.000147	99.881634	4.5
382	2023.730345	2.954453	0.000146	106.946371	3.6
383	1973.272907	2.948636	0.000147	112.025200	3.7
384	2016.027351	2.949670	0.000147	87.291937	3.6
385	2096.245314	2.946355	0.000147	81.139155	2.9
386	2003.506039	2.948662	0.000147	180.923696	3.0
387	1957.209760	2.942832	0.000147	143.515605	3.0
388	1986.594065	2.967071	0.000146	187.003283	2.8
389	2036.569411	2.976679	0.000146	77.783735	2.8
390	2028.945281	2.969534	0.000146	79.821771	2.8
391	1997.073888	2.965787	0.000146	160.766881	2.9
392	2083.593158	2.975812	0.000146	49.003015	3.3
393	2061.122982	2.971838	0.000146	49.883394	2.5
394	1932.774532	2.970529	0.000146	129.541577	2.5
395	2064.872018	2.971172	0.000146	113.643948	2.4
396	2034.361436	2.983937	0.000146	107.354069	2.4
397	1915.645990	2.982006	0.000146	66.188945	3.4
398	1967.003067	2.980276	0.000146	129.329073	2.5
399	1882.376536	2.982549	0.000146	88.097754	4.5
400	1970.704942	2.979477	0.000146	106.345194	4.4
401	2006.532759	2.983200	0.000146	154.982372	3.6
402	1987.365465	3.000534	0.000146	45.108394	3.4
403	1991.965550	3.001887	0.000146	72.912176	3.3
404	2062.706708	2.999908	0.000146	94.377868	2.8
405	2042.865495	3.002634	0.000146	144.393904	2.8
406	1967.795821	3.008421	0.000146	63.288932	2.8
407	2055.017999	3.005842	0.000146	47.749078	2.7
408	2141.629520	3.004047	0.000146	161.105741	2.4
409	1935.883531	3.003742	0.000146	64.920672	2.5
