1:ItNr	2:Metric	3a:Time	3b:StepSize	4:||Gradient||	Time[ms]
0	110948.232673	0.000000	0.000155	11220.042151	281.3
1	93380.050805	0.000000	0.000155	10062.284727	4.5
2	79623.812281	0.000000	0.000155	8938.336370	2.0
3	69838.280353	0.000000	0.000155	8236.681948	1.9
4	59081.499730	0.000000	0.000155	7818.887380	4.5
5	49569.635939	0.000000	0.000155	7269.474314	4.0
6	41029.881599	0.000000	0.000155	6655.112183	3.1
7	35137.314427	0.000000	0.000155	6430.172502	2.5
8	28458.424535	0.000000	0.000155	5486.228457	2.2
9	23730.991776	0.000000	0.000155	4915.662718	4.2
10	20468.397101	0.000000	0.000155	4348.813359	3.4
11	18009.380953	0.000000	0.000155	3631.411201	3.0
12	15727.167911	0.000000	0.000155	3084.967619	4.6
13	14318.424265	0.000000	0.000155	2433.490277	4.0
14	14125.298411	0.000000	0.000155	2177.118311	2.9
15	12604.998051	0.000000	0.000155	1469.629885	6.0
16	12630.236935	0.000000	0.000155	1314.382981	6.3
17	12457.082659	0.000000	0.000155	1053.813838	3.8
18	12325.865753	0.000000	0.000155	879.727202	3.7
19	12316.360949	0.000000	0.000155	725.880909	5.8
20	12317.481374	0.000000	0.000155	789.212582	3.2
21	12645.383765	0.000000	0.000155	609.332687	3.2
22	12036.249308	0.000000	0.000155	529.781826	5.0
23	12450.687765	0.000000	0.000155	440.487701	3.7
24	12163.278530	0.000000	0.000155	406.822224	3.9
25	12053.506579	0.000000	0.000155	518.634774	4.4
26	11761.310798	0.000000	0.000155	505.327582	4.3
27	11154.248610	0.000000	0.000155	367.735265	3.5
28	12389.659089	0.000000	0.000155	397.227460	4.0
29	11784.323608	0.000000	0.000155	323.512445	4.5
30	11887.798986	0.000000	0.000155	283.786028	3.9
31	12056.540647	0.000000	0.000155	325.630897	2.7
32	11724.041541	0.000000	0.000155	252.196641	5.4
33	11377.473491	0.000000	0.000155	228.392525	2.8
34	12085.481033	0.000000	0.000155	327.555799	5.0
35	11953.383045	0.000000	0.000155	283.575308	3.3
36	12375.412387	0.000000	0.000155	282.350942	4.7
37	11467.280514	0.000000	0.000155	268.212390	4.0
38	11356.395081	0.000000	0.000155	281.504888	4.5
39	11617.989733	0.000000	0.000155	253.778226	5.3
40	12029.197142	0.000000	0.000155	385.829553	4.8
41	12083.310280	0.000000	0.000155	284.764766	5.0
42	11999.361723	0.000000	0.000155	306.415849	5.3
43	11254.393965	0.000000	0.000155	297.763341	4.5
44	11773.068845	0.000000	0.000155	232.068000	4.4
45	12352.290152	0.000000	0.000155	240.961477	4.5
46	12194.182382	0.000000	0.000155	319.866756	5.3
47	10657.368651	0.000000	0.000155	289.320852	5.3
48	12100.896107	0.000000	0.000155	248.406522	4.4
49	11558.992116	0.000000	0.000155	269.597915	4.9
50	11391.687298	0.000000	0.000155	257.834591	3.9
51	11865.706663	0.000000	0.000155	228.271060	4.1
52	11635.125400	0.000000	0.000155	220.200838	3.7
53	11974.726916	0.000000	0.000155	248.946282	5.1
54	11693.631895	0.000000	0.000155	215.655427	3.3
55	11629.420608	0.000000	0.000155	232.535110	3.3
56	11696.801408	0.000000	0.000155	260.780032	4.0
57	11877.172722	0.000000	0.000155	193.082737	5.8
58	11573.505575	0.000000	0.000155	215.457980	4.5
59	11881.498216	0.000000	0.000155	244.501994	4.5
60	11288.834749	0.000000	0.000155	211.851209	4.6
61	11472.311863	0.000000	0.000155	270.887100	4.0
62	11301.220808	0.000000	0.000155	224.437029	4.1
63	11744.467232	0.000000	0.000155	274.346426	4.1
64	12030.010279	0.000000	0.000155	236.138249	3.1
65	11642.460207	0.000000	0.000155	278.419427	3.4
66	11603.789543	0.000000	0.000155	252.349573	6.3
67	11233.681820	0.000000	0.000155	196.405204	3.6
68	12191.024090	0.000000	0.000155	290.586848	3.2
69	11905.420469	0.000000	0.000155	217.426704	3.3
70	11540.490277	0.000000	0.000155	231.538736	6.6
71	11882.918480	0.000000	0.000155	188.343155	2.8
72	11272.695912	0.000000	0.000155	183.657639	2.8
73	11652.347042	0.000000	0.000155	202.681617	2.9
74	11340.027393	0.000000	0.000155	256.675730	3.6
75	12312.665751	0.000000	0.000155	224.051755	3.1
76	11582.891082	0.000000	0.000155	208.866980	6.8
77	11889.798964	0.000000	0.000155	232.578196	5.2
78	12019.768160	0.000000	0.000155	299.976286	4.7
79	12294.080408	0.000000	0.000155	215.820070	5.4
80	11888.297981	0.000000	0.000155	280.458077	2.5
81	11705.462035	0.000000	0.000155	321.927254	3.3
82	11985.530974	0.013979	0.000155	230.181737	4.7
83	12105.815264	0.008231	0.000155	287.329583	4.6
84	11658.292812	0.000000	0.000155	241.195120	3.3
85	12123.338486	0.000000	0.000155	216.654891	3.2
86	11269.848832	0.000000	0.000155	214.975514	3.4
87	11496.664031	0.000000	0.000155	246.029974	5.5
88	11674.783098	0.000000	0.000155	202.357766	4.4
89	11861.590128	0.000000	0.000155	282.105139	6.6
90	11390.613379	0.000000	0.000155	206.406268	3.6
91	11434.918785	0.000000	0.000155	250.290772	3.5
92	11288.485052	0.000000	0.000155	192.928431	5.7
93	11221.721780	0.000000	0.000155	214.984224	3.9
94	11191.892258	0.000000	0.000155	214.770685	4.0
95	10994.896768	0.000000	0.000155	210.435028	4.1
96	11761.684571	0.000000	0.000155	248.108403	3.3
97	11327.501395	0.000000	0.000155	249.982352	3.3
98	11930.574620	0.000000	0.000155	205.007437	5.3
99	11189.266110	0.000000	0.000155	191.686446	3.1
100	11737.370855	0.000000	0.000155	256.663093	3.3
101	11404.128036	0.000000	0.000155	188.804522	3.5
102	11702.429885	0.000000	0.000155	204.296512	5.9
103	11887.559045	0.000000	0.000155	204.718788	3.9
104	11865.182293	0.000000	0.000155	222.774937	4.6
105	12290.649317	0.000000	0.000155	227.304033	4.2
106	11710.108561	0.000000	0.000155	234.704478	4.5
107	10890.105554	0.000000	0.000155	199.776689	4.3
108	11329.000690	0.000000	0.000155	239.079535	4.4
109	11330.554805	0.000000	0.000155	225.012756	4.2
110	11633.719403	0.000000	0.000155	216.878758	5.7
111	11147.570145	0.000000	0.000155	183.289266	5.1
112	11522.319400	0.000000	0.000155	255.823875	7.5
113	11695.120426	0.000000	0.000155	195.556529	4.2
114	11567.208219	0.000000	0.000155	215.572351	4.1
115	10908.911471	0.000000	0.000155	197.705821	5.1
116	11467.854285	0.000000	0.000155	181.017912	5.0
117	11549.758294	0.000000	0.000155	282.632779	5.9
118	11307.655911	0.000000	0.000155	239.424060	5.2
119	11454.047624	0.000000	0.000155	232.787103	5.2
120	11452.563607	0.000000	0.000155	238.934587	5.0
121	11645.579396	0.000000	0.000155	233.860735	4.0
122	11123.257092	0.000000	0.000155	213.564827	5.4
123	11133.744198	0.000000	0.000155	194.688685	5.5
124	11391.575628	0.000000	0.000155	239.658975	5.7
125	11287.968100	0.000000	0.000155	193.112925	5.7
126	10932.956890	0.000000	0.000155	221.542003	5.5
127	11276.740777	0.000000	0.000155	244.924654	5.6
128	11466.646522	0.000000	0.000155	239.762218	5.1
129	11366.673112	0.000000	0.000155	222.213208	5.1
130	11525.273996	0.000000	0.000155	271.004645	6.6
131	11250.257836	0.000000	0.000155	201.947247	4.3
132	11405.675181	0.000000	0.000155	206.160235	5.4
133	11440.575895	0.000000	0.000155	248.849938	5.2
134	11157.156318	0.000000	0.000155	250.419746	3.5
135	11033.692741	0.000000	0.000155	231.255210	3.2
136	10521.702422	0.000000	0.000155	239.537043	3.6
137	11679.625356	0.000000	0.000155	228.487565	4.7
138	11718.164223	0.000000	0.000155	270.592784	3.3
139	12196.475905	0.000000	0.000155	195.775892	5.8
140	11083.894902	0.000000	0.000155	181.019549	4.3
141	11497.280668	0.000000	0.000155	183.393066	4.3
142	11164.985218	0.000000	0.000155	187.226313	3.5
143	11462.991677	0.000000	0.000155	246.608046	3.5
144	11084.384226	0.000000	0.000155	221.704687	5.1
145	11411.109210	0.000000	0.000155	220.513815	4.0
146	10727.083023	0.000000	0.000155	210.853788	3.7
147	11135.247358	0.000000	0.000155	233.470026	4.1
148	11425.764635	0.000000	0.000155	308.030011	4.2
149	11322.913679	0.002842	0.000155	201.668989	3.9
150	11701.021666	0.000000	0.000155	226.046347	3.9
151	10423.016723	0.000000	0.000155	192.111289	3.8
152	11422.296673	0.000000	0.000155	242.347890	3.2
153	10985.330974	0.000000	0.000155	197.603619	3.2
154	10857.226397	0.000000	0.000155	249.181127	7.6
155	11645.375360	0.000000	0.000155	233.981277	3.2
156	11198.932273	0.000000	0.000155	194.689368	3.6
157	11693.918711	0.000000	0.000155	195.705227	3.6
158	10269.039917	0.000000	0.000155	159.005893	6.2
159	11800.766327	0.000000	0.000155	201.215255	3.6
160	11498.388884	0.000000	0.000155	193.242770	3.3
161	11468.683424	0.000000	0.000155	185.914056	2.9
162	11239.162798	0.000000	0.000155	214.764920	2.8
163	10902.739588	0.000000	0.000155	214.652032	4.1
164	10843.121288	0.000000	0.000155	177.984558	4.7
165	10717.892782	0.000000	0.000155	179.642803	4.8
166	10913.953452	0.000000	0.000155	223.561559	6.6
167	10994.634775	0.000000	0.000155	273.496783	4.1
168	11263.275316	0.000026	0.000155	179.218030	4.0
169	10792.362548	0.000000	0.000155	234.819355	3.6
170	10883.959569	0.000000	0.000155	208.547155	3.7
171	11143.048445	0.000000	0.000155	194.829766	3.6
172	11308.419686	0.000000	0.000155	185.923378	5.1
173	11816.810124	0.000000	0.000155	197.114402	3.5
174	11453.237286	0.000000	0.000155	256.507294	3.6
175	11060.532979	0.000000	0.000155	184.681369	3.5
176	10620.850671	0.000000	0.000155	198.232785	5.2
177	10753.077715	0.000000	0.000155	186.997357	4.8
178	11556.143689	0.000000	0.000155	216.232229	5.0
179	11524.379899	0.000000	0.000155	190.630918	4.1
180	11164.360408	0.000000	0.000155	176.270443	3.6
181	11249.255679	0.000000	0.000155	209.367110	3.8
182	11735.508193	0.000000	0.000155	198.915806	6.3
183	10898.807759	0.000000	0.000155	198.541817	6.3
184	11292.978545	0.000000	0.000155	217.402914	4.2
185	11205.788922	0.000000	0.000155	306.297967	4.4
186	10588.646823	0.000000	0.000155	159.031172	3.9
187	10887.919054	0.000000	0.000155	201.847208	5.4
188	11430.892519	0.000000	0.000155	180.533885	4.3
189	11083.493911	0.000000	0.000155	224.484280	5.2
190	10778.017529	0.000000	0.000155	233.579982	3.4
191	10792.094720	0.000000	0.000155	244.915722	5.3
192	11063.805270	0.000000	0.000155	219.480302	3.2
193	11302.732203	0.000000	0.000155	184.339862	3.5
194	10781.214878	0.000000	0.000155	270.542510	3.6
195	10909.381666	0.000000	0.000155	189.767026	4.9
196	11477.168574	0.000000	0.000155	278.838904	4.5
197	10867.249095	0.000000	0.000155	198.486109	3.6
198	10868.004395	0.000000	0.000155	259.394177	4.3
199	11104.265563	0.000000	0.000155	190.411986	4.4
200	10267.395215	0.000000	0.000155	162.731087	4.0
201	10524.758076	0.000000	0.000155	186.411514	4.9
202	10755.931912	0.000000	0.000155	172.840465	3.8
203	11496.853153	0.000000	0.000155	196.763891	3.7
204	11277.861920	0.000000	0.000155	177.123351	3.7
205	11254.251013	0.000000	0.000155	189.099467	3.5
206	10253.138186	0.000000	0.000155	188.179731	3.2
207	10891.376600	0.000000	0.000155	178.634021	4.1
208	10747.866558	0.000000	0.000155	186.583146	6.0
209	11348.413335	0.000000	0.000155	202.359969	3.2
210	11280.038422	0.000000	0.000155	251.182739	3.4
211	10748.992286	0.000000	0.000155	237.558820	4.1
212	10969.134708	0.001592	0.000155	204.345808	3.7
213	10654.123963	0.000000	0.000155	219.553510	3.7
214	10692.477629	0.000000	0.000155	166.539389	5.0
215	11055.930081	0.000000	0.000155	194.810015	4.1
216	10843.419576	0.000000	0.000155	219.051642	4.2
217	10783.510443	0.000000	0.000155	173.160306	3.7
218	11383.620583	0.000000	0.000155	266.483481	3.1
219	11315.223666	0.000000	0.000155	260.372872	5.4
220	11086.562566	0.009430	0.000155	186.703665	3.3
221	11365.297748	0.000658	0.000155	211.442761	3.2
222	10980.261829	0.000000	0.000155	229.621543	3.5
223	10818.500064	0.000000	0.000155	222.331664	6.1
224	11081.703124	0.000000	0.000155	210.702043	4.1
225	11789.641453	0.000000	0.000155	198.932661	4.1
226	11117.095717	0.000000	0.000155	175.288446	3.9
227	10993.645339	0.000000	0.000155	218.891329	3.9
228	10532.553697	0.000000	0.000155	234.034130	5.2
229	10931.172137	0.000000	0.000155	210.880388	6.0
230	11074.214190	0.000000	0.000155	216.474585	3.1
231	10424.782641	0.000000	0.000155	177.073388	4.1
232	10767.331693	0.000000	0.000155	236.004737	3.0
233	10647.578328	0.000000	0.000155	202.973989	3.3
234	11338.825805	0.000000	0.000155	300.099512	3.2
235	10462.111274	0.000953	0.000155	203.704123	5.0
236	10191.456554	0.000000	0.000155	176.617238	2.8
237	11028.950123	0.000000	0.000155	166.998760	5.2
238	10855.016791	0.000000	0.000155	208.149980	3.5
239	10834.596532	0.000000	0.000155	208.170928	6.2
240	10481.160994	0.000000	0.000155	172.168670	4.6
241	11299.640144	0.000000	0.000155	183.006806	4.7
242	11185.374796	0.000000	0.000155	215.547682	4.3
243	10616.811868	0.000000	0.000155	178.499052	4.8
244	10501.074199	0.000000	0.000155	164.173274	5.9
245	10467.765742	0.000000	0.000155	183.223869	4.7
246	10667.782555	0.000000	0.000155	186.241357	5.1
247	10584.141821	0.000000	0.000155	177.734712	4.3
248	10690.182509	0.000000	0.000155	171.646378	4.9
249	10025.407998	0.000000	0.000155	185.978904	5.1
250	10683.005857	0.000000	0.000155	246.343901	5.1
251	10901.346805	0.000000	0.000155	200.285464	3.5
252	10213.319419	0.000000	0.000155	194.539671	4.5
253	11156.944566	0.000000	0.000155	204.458460	3.6
254	10540.540217	0.000000	0.000155	223.154217	3.5
255	10675.177887	0.000000	0.000155	229.232232	2.9
256	10356.084270	0.000000	0.000155	173.606608	4.7
257	10230.885432	0.000000	0.000155	283.236480	5.0
258	10770.174104	0.000000	0.000155	223.183166	5.0
259	10709.639995	0.000000	0.000155	247.413380	4.9
260	10599.047664	0.000000	0.000155	173.038735	4.0
261	10592.000978	0.000000	0.000155	169.827792	4.8
262	10050.327362	0.000000	0.000155	242.224641	3.1
263	9871.132693	0.000000	0.000155	150.494130	4.8
264	10945.876621	0.000000	0.000155	192.141581	3.2
265	11089.375533	0.000000	0.000155	185.322935	3.2
266	10446.199710	0.000000	0.000155	195.678516	3.9
267	10715.750096	0.000000	0.000155	181.505514	4.4
268	10338.001448	0.000000	0.000155	217.555573	4.3
269	10931.489611	0.000000	0.000155	167.513315	5.7
270	10709.254315	0.000000	0.000155	182.707240	4.6
271	10392.472701	0.000000	0.000155	194.580862	5.5
272	10741.227533	0.000000	0.000155	179.156588	7.9
273	10482.021903	0.000000	0.000155	189.870984	5.3
274	10513.448106	0.000000	0.000155	286.571213	5.2
275	10119.281178	0.000000	0.000155	193.452613	5.5
276	10038.791114	0.000000	0.000155	213.673428	6.6
277	10019.228751	0.000000	0.000155	184.168118	5.6
278	10587.840716	0.000000	0.000155	173.599691	5.2
279	10967.435193	0.000000	0.000155	184.038406	5.3
280	10649.808456	0.000000	0.000155	149.961498	5.3
281	10034.914672	0.000000	0.000155	186.312756	5.1
282	10164.876833	0.000000	0.000155	157.430344	4.4
283	11058.842640	0.000000	0.000155	196.069950	3.8
284	10338.351985	0.000000	0.000155	187.362461	4.4
285	11053.540909	0.000000	0.000155	212.176209	3.9
286	11092.245979	0.000000	0.000155	217.298839	4.4
287	10811.500755	0.000000	0.000155	197.160556	3.4
288	10477.258379	0.000000	0.000155	228.743314	4.9
289	10600.940557	0.000000	0.000155	162.556418	5.9
290	10752.670774	0.000000	0.000155	334.441638	4.9
291	10761.657758	0.000000	0.000155	211.275096	5.4
292	10854.642511	0.000000	0.000155	177.551049	5.1
293	10097.540817	0.000000	0.000155	163.259050	5.2
294	10963.321894	0.000000	0.000155	178.674189	5.1
295	10551.768506	0.000000	0.000155	197.860998	6.2
296	10467.702479	0.000000	0.000155	190.654729	5.0
297	9840.657122	0.000000	0.000155	191.112368	4.8
298	10957.804060	0.000000	0.000155	197.532376	3.9
299	10632.199496	0.000000	0.000155	160.586783	3.6
300	10717.281778	0.000000	0.000155	206.746092	3.5
301	10467.111266	0.000000	0.000155	162.051079	2.9
302	10579.129550	0.000000	0.000155	173.327447	2.9
303	10517.324071	0.000000	0.000155	195.435500	4.3
304	10541.665605	0.000000	0.000155	195.661234	3.8
305	10613.367693	0.000000	0.000155	189.240649	5.0
306	10922.788257	0.000000	0.000155	154.720313	4.8
307	10683.794653	0.000000	0.000155	242.813947	3.2
308	10878.154822	0.000000	0.000155	211.590209	5.2
309	10514.132615	0.000000	0.000155	162.155805	5.6
310	10901.598452	0.000000	0.000155	206.415403	5.6
311	10997.021699	0.000000	0.000155	289.626670	5.1
312	10311.600740	0.000000	0.000155	160.832008	4.9
313	11057.938012	0.000000	0.000155	160.607846	5.1
314	10539.271928	0.000000	0.000155	161.844944	4.7
315	10442.319936	0.000000	0.000155	157.817427	5.0
316	10631.487451	0.000000	0.000155	173.432150	4.7
317	10718.493657	0.000000	0.000155	171.841003	4.3
318	10280.900461	0.000000	0.000155	181.721228	4.0
319	10420.173326	0.000000	0.000155	183.914838	3.4
320	10604.739773	0.000000	0.000155	230.768086	5.7
321	10471.734678	0.000000	0.000155	194.591471	4.9
322	10339.945220	0.000000	0.000155	195.796990	4.9
323	10190.774882	0.000000	0.000155	164.290370	4.9
324	10727.294911	0.000000	0.000155	198.237173	6.2
325	10873.935304	0.000000	0.000155	191.952993	6.6
326	10141.083036	0.000000	0.000155	215.868110	4.6
327	10243.642787	0.000000	0.000155	249.287079	5.9
328	10782.040680	0.002744	0.000155	231.601298	5.1
329	10329.097802	0.010734	0.000155	218.909904	5.8
330	10235.157985	0.013562	0.000155	160.055134	5.2
331	10232.627898	0.008229	0.000155	163.500234	4.8
332	10734.594806	0.001147	0.000155	194.311127	5.3
333	10494.496167	0.000000	0.000155	165.004700	5.9
334	10202.247013	0.000000	0.000155	177.769039	5.2
335	10602.958117	0.000000	0.000155	155.577823	6.3
336	10441.427075	0.000000	0.000155	175.619742	4.5
337	10874.492039	0.000000	0.000155	221.347866	5.0
338	11297.296855	0.000000	0.000155	195.565020	5.4
339	10657.521226	0.000000	0.000155	244.126600	5.6
340	10514.652492	0.000000	0.000155	197.046438	4.6
341	10283.009271	0.000000	0.000155	208.771882	4.9
342	10715.483393	0.000000	0.000155	183.539936	4.3
343	10304.723624	0.000000	0.000155	161.553697	4.1
344	10580.555590	0.000000	0.000155	196.511108	3.4
345	10364.539560	0.000000	0.000155	144.665397	4.9
346	10302.618392	0.000000	0.000155	155.552932	6.2
347	10667.389317	0.000000	0.000155	161.245137	4.0
348	10649.514477	0.000000	0.000155	170.765631	4.9
349	10777.906042	0.000000	0.000155	241.512031	4.8
350	9992.799490	0.000000	0.000155	202.608060	5.0
351	10112.231580	0.001416	0.000155	252.315683	4.7
352	10434.335128	0.000000	0.000155	155.836155	4.0
353	10457.926174	0.000000	0.000155	160.910339	4.5
354	10290.924088	0.000000	0.000155	142.950864	5.1
355	10240.409537	0.000000	0.000155	172.143399	4.9
356	10428.872667	0.000000	0.000155	210.470060	5.8
357	10657.792186	0.000000	0.000155	204.231579	5.2
358	10892.826367	0.000000	0.000155	203.207650	5.6
359	9684.983989	0.000000	0.000155	203.288567	4.4
360	10234.817106	0.000000	0.000155	165.643597	4.6
361	9773.086712	0.000000	0.000155	179.458530	5.1
362	9789.030798	0.000000	0.000155	176.551458	6.9
363	10044.260117	0.000000	0.000155	259.834138	4.6
364	10048.439857	0.000000	0.000155	196.882840	4.9
365	10741.142522	0.000616	0.000155	188.827127	5.9
366	10141.522875	0.000000	0.000155	168.573118	3.9
367	10402.923168	0.000000	0.000155	152.388883	4.0
368	10491.377130	0.000000	0.000155	170.383586	4.6
369	10569.241963	0.000000	0.000155	237.805752	4.6
370	10689.878757	0.000000	0.000155	158.733562	4.4
371	10250.793716	0.000000	0.000155	181.333685	3.6
372	10293.587581	0.000000	0.000155	208.406371	4.5
373	10607.090573	0.000000	0.000155	138.544643	3.9
374	10472.292073	0.000000	0.000155	149.473441	3.1
375	10109.268549	0.000000	0.000155	138.845349	6.3
376	10516.126234	0.000000	0.000155	143.905949	3.9
377	10022.067831	0.000000	0.000155	179.522395	3.3
378	10163.204958	0.000000	0.000155	160.807927	4.2
379	10375.058894	0.000000	0.000155	165.345277	5.4
380	10298.996255	0.000000	0.000155	215.100498	5.8
381	10568.093314	0.000000	0.000155	150.505039	5.5
382	10596.817212	0.000000	0.000155	196.702612	5.9
383	10343.273724	0.000000	0.000155	140.549770	5.2
384	10844.837494	0.000000	0.000155	162.964779	4.9
385	10272.675336	0.000000	0.000155	154.159077	5.1
386	10377.855281	0.000000	0.000155	143.454762	5.3
387	10324.840174	0.000000	0.000155	162.386958	5.9
388	10186.405403	0.000000	0.000155	188.446639	5.8
389	9820.433236	0.000000	0.000155	161.113719	6.1
390	9809.988800	0.000000	0.000155	169.025686	4.1
391	9858.419707	0.000000	0.000155	138.691523	5.4
392	10581.243418	0.000000	0.000155	238.748406	5.1
393	10255.438647	0.000000	0.000155	161.319190	5.1
394	10361.764816	0.000000	0.000155	180.742581	6.0
395	10559.311075	0.000000	0.000155	211.183092	5.3
396	9963.124724	0.000000	0.000155	151.778844	5.0
397	10091.454932	0.000000	0.000155	172.790377	2.8
398	9849.602467	0.000000	0.000155	184.286912	4.0
399	10021.501597	0.000000	0.000155	186.696307	5.0
