1:ItNr	2:Metric	3a:Time	3b:StepSize	4:||Gradient||	Time[ms]
0	506585.882914	0.000000	0.000053	35094.986524	262.7
1	468321.716082	0.000000	0.000053	35091.431206	2.6
2	386720.402525	0.000000	0.000053	33054.750006	2.6
3	340951.297784	0.000000	0.000053	33604.098141	2.7
4	284519.457732	0.000000	0.000053	28980.940669	3.3
5	243996.440254	0.000000	0.000053	27742.114951	3.1
6	199019.450920	0.000000	0.000053	26156.301811	3.5
7	165749.336801	0.000000	0.000053	24689.691841	3.3
8	140375.224891	0.000000	0.000053	23765.489727	2.7
9	108656.546203	0.000000	0.000053	20543.081540	3.7
10	93767.802391	0.000000	0.000053	19779.738707	2.9
11	75759.727830	0.000000	0.000053	16879.008470	5.7
12	61271.399124	0.000000	0.000053	15150.796396	4.3
13	46273.026346	0.000000	0.000053	12438.704286	3.6
14	39068.670478	0.000000	0.000053	11710.811562	3.4
15	32628.733714	0.000000	0.000053	9923.785407	6.9
16	28130.565882	0.000000	0.000053	9460.088044	5.1
17	21905.137556	0.000000	0.000053	7671.469111	4.8
18	21209.754964	0.000000	0.000053	7746.287386	5.1
19	17362.917886	0.000000	0.000053	6503.597790	5.8
20	15854.914520	0.000000	0.000053	6122.309231	5.4
21	14150.688591	0.000000	0.000053	5843.889085	5.3
22	11670.159045	0.000000	0.000053	4886.592841	5.7
23	10612.454525	0.000000	0.000053	4499.545820	5.0
24	10208.783379	0.000000	0.000053	4214.193263	7.0
25	8787.634011	0.000000	0.000053	3650.778287	6.2
26	7960.621380	0.000000	0.000053	3473.874860	5.4
27	7299.190397	0.000000	0.000053	3249.800106	5.4
28	7305.011497	0.000000	0.000053	3292.007201	4.6
29	6390.267444	0.000000	0.000053	2999.567503	5.2
30	6121.544353	0.000000	0.000053	2754.915033	6.2
31	5776.234889	0.000000	0.000053	2487.581139	5.4
32	5167.955989	0.000000	0.000053	2189.758198	5.3
33	4987.560526	0.000000	0.000053	2194.290858	6.1
34	4974.015359	0.000000	0.000053	1962.333759	4.4
35	4814.881384	0.000000	0.000053	1797.827324	4.3
36	4342.275727	0.000000	0.000053	1783.594984	4.1
37	4282.235443	0.000000	0.000053	1707.200205	4.5
38	4076.680942	0.000000	0.000053	1598.451255	3.9
39	3896.783229	0.000000	0.000053	1462.107387	4.3
40	3842.906644	0.000000	0.000053	1486.256610	3.8
41	3727.676789	0.000000	0.000053	1178.356362	4.3
42	3637.731017	0.000000	0.000053	1163.508727	3.0
43	3673.049707	0.000000	0.000053	1196.851866	4.7
44	3385.709760	0.000000	0.000053	1127.286628	4.0
45	3446.216017	0.000000	0.000053	1059.973948	3.7
46	3462.215351	0.000000	0.000053	1008.493996	4.6
47	3451.751272	0.000000	0.000053	1006.594903	3.4
48	3360.500873	0.000000	0.000053	937.464143	4.4
49	3001.042175	0.000000	0.000053	885.693197	4.0
50	3507.569799	0.000000	0.000053	760.098559	3.2
51	3281.203827	0.000000	0.000053	858.586743	7.7
52	3233.799798	0.000000	0.000053	802.895682	3.2
53	3009.134153	0.000000	0.000053	751.013799	3.1
54	3112.330091	0.000000	0.000053	667.574950	3.1
55	3196.187259	0.000000	0.000053	684.022457	3.4
56	2938.181786	0.000000	0.000053	639.496459	5.4
57	3007.757236	0.000000	0.000053	633.343305	4.8
58	2766.790103	0.000000	0.000053	596.903274	4.9
59	3045.669956	0.000000	0.000053	505.833669	6.2
60	2932.798150	0.000000	0.000053	575.043941	4.9
61	3118.901272	0.000000	0.000053	538.866004	4.5
62	3087.951405	0.000000	0.000053	499.934269	4.4
63	2973.000333	0.000000	0.000053	455.850829	4.0
64	2917.330788	0.000000	0.000053	396.145669	4.1
65	2869.714294	0.000000	0.000053	445.301635	4.3
66	2943.018439	0.000000	0.000053	499.937147	3.8
67	2877.624616	0.000000	0.000053	359.261928	3.8
68	2950.691685	0.000000	0.000053	421.961608	5.1
69	2819.400448	0.000000	0.000053	435.518925	4.9
70	2899.520588	0.000000	0.000053	376.275312	6.1
71	3058.261006	0.000000	0.000053	406.312475	5.2
72	2770.739451	0.000000	0.000053	389.841069	4.5
73	3088.183044	0.000000	0.000053	388.110212	4.4
74	3091.153490	0.000000	0.000053	413.699192	4.9
75	3019.574017	0.000000	0.000053	303.324347	5.2
76	2967.490394	0.000000	0.000053	347.404053	6.1
77	2832.767491	0.000000	0.000053	346.956056	5.2
78	2925.879573	0.000000	0.000053	346.491513	5.2
79	2705.548961	0.000000	0.000053	297.570763	6.6
80	2860.920767	0.000000	0.000053	300.521131	5.3
81	2811.992452	0.000000	0.000053	306.902874	5.4
82	2793.158894	0.000000	0.000053	319.545728	6.4
83	2860.369864	0.000000	0.000053	316.998076	5.0
84	2909.319907	0.000000	0.000053	285.162583	4.8
85	2579.758508	0.000000	0.000053	286.996140	4.1
86	2867.439423	0.000000	0.000053	306.477424	4.0
87	2902.855545	0.000000	0.000053	250.738291	4.6
88	2737.544621	0.000000	0.000053	287.297799	5.4
89	2705.627867	0.000000	0.000053	263.220995	3.9
90	2966.205235	0.000000	0.000053	341.445870	3.4
91	2631.037374	0.000000	0.000053	227.565291	5.5
92	2825.754646	0.000000	0.000053	323.311492	8.0
93	2585.552620	0.000000	0.000053	257.635168	5.5
94	2721.148218	0.000000	0.000053	262.824610	5.3
95	2699.289278	0.000000	0.000053	250.910351	4.5
96	2817.048204	0.000000	0.000053	320.674410	4.9
97	2933.956268	0.000000	0.000053	344.456906	3.9
98	2751.565960	0.000000	0.000053	238.642087	5.7
99	2658.146173	0.000000	0.000053	251.229000	3.6
100	2760.113495	0.000000	0.000053	256.890252	3.5
101	2719.893729	0.000000	0.000053	244.094200	3.7
102	2740.142281	0.000000	0.000053	237.807266	5.4
103	2770.381561	0.000000	0.000053	236.413547	3.6
104	2745.412888	0.000000	0.000053	272.686425	4.0
105	2721.278835	0.000000	0.000053	268.205564	4.4
106	2754.015496	0.000000	0.000053	256.302497	4.2
107	2709.214376	0.000000	0.000053	239.168786	3.4
108	2888.770706	0.000000	0.000053	259.634983	3.5
109	2798.674959	0.000000	0.000053	251.707401	5.2
110	2662.994998	0.000000	0.000053	226.207536	5.2
111	2940.451237	0.000000	0.000053	290.337783	4.3
112	2559.705359	0.000000	0.000053	272.639403	4.1
113	2774.401102	0.000000	0.000053	269.797576	4.2
114	2667.028480	0.000000	0.000053	232.843511	5.3
115	2651.662676	0.000000	0.000053	229.663538	5.7
116	2828.011600	0.000000	0.000053	237.032057	6.4
117	2687.104223	0.000000	0.000053	243.081563	5.6
118	2789.641890	0.000000	0.000053	238.188276	5.2
119	2809.061553	0.000000	0.000053	283.110091	5.2
120	2705.649174	0.000000	0.000053	257.706564	5.8
121	2651.562823	0.000000	0.000053	223.604252	4.4
122	2661.336230	0.000000	0.000053	227.414592	4.1
123	2770.203529	0.000000	0.000053	244.758878	4.1
124	2639.791764	0.000000	0.000053	225.727124	3.9
125	2876.556777	0.000000	0.000053	248.124674	5.8
126	2577.470864	0.000000	0.000053	275.498870	3.9
127	2674.563018	0.000000	0.000053	233.184241	3.6
128	2618.828675	0.000000	0.000053	280.947273	3.5
129	2610.885348	0.000000	0.000053	217.678919	3.6
130	2603.970335	0.000000	0.000053	237.885887	5.3
131	2665.114031	0.000000	0.000053	242.458945	7.1
132	2605.391112	0.000000	0.000053	234.647772	3.6
133	2615.518818	0.000000	0.000053	220.468663	3.7
134	2706.269419	0.000000	0.000053	234.693675	3.8
135	2565.779936	0.000000	0.000053	224.647567	4.4
136	2714.986824	0.000000	0.000053	256.812951	3.3
137	2699.361102	0.000000	0.000053	256.153612	3.4
138	2633.156002	0.000000	0.000053	273.296163	5.1
139	2726.850142	0.000000	0.000053	239.019882	4.3
140	2603.546507	0.000000	0.000053	237.900657	5.0
141	2485.214444	0.000000	0.000053	250.788505	7.1
142	2663.516964	0.000000	0.000053	243.491118	5.6
143	2681.799435	0.000000	0.000053	245.510081	5.0
144	2739.267201	0.000000	0.000053	252.681407	5.0
145	2728.049758	0.000000	0.000053	232.972819	5.8
146	2537.049812	0.000000	0.000053	215.028860	3.9
147	2581.439535	0.000000	0.000053	248.540066	5.2
148	2884.596354	0.000000	0.000053	281.468422	4.8
149	2510.586281	0.000000	0.000053	212.834386	7.6
150	2596.655742	0.000000	0.000053	218.705480	4.2
151	2448.275491	0.000000	0.000053	231.391222	5.5
152	2582.167631	0.000000	0.000053	218.100026	5.0
153	2557.742659	0.000000	0.000053	223.705341	4.6
154	2780.852597	0.000000	0.000053	276.443823	5.1
155	2863.739740	0.000000	0.000053	326.097412	5.1
156	2636.051095	0.000000	0.000053	288.376433	5.4
157	2662.662364	0.000000	0.000053	227.202929	3.9
158	2744.088027	0.000000	0.000053	276.758053	4.7
159	2754.808659	0.000000	0.000053	268.155923	5.2
160	2600.846356	0.000000	0.000053	220.812149	5.0
161	2286.235456	0.000000	0.000053	213.824968	4.4
162	2526.708723	0.000000	0.000053	215.984824	4.6
163	2666.313083	0.000000	0.000053	237.025919	4.0
164	2568.695015	0.000000	0.000053	224.469154	6.7
165	2650.389929	0.000000	0.000053	234.202042	5.6
166	2741.188011	0.000000	0.000053	249.025352	6.0
167	2835.230050	0.000000	0.000053	335.746514	3.2
168	2647.316255	0.000000	0.000053	245.427003	3.7
169	2456.473638	0.000000	0.000053	257.958373	2.9
170	2467.397214	0.000000	0.000053	243.780935	5.7
171	2622.303675	0.000000	0.000053	236.731430	4.8
172	2597.701102	0.000000	0.000053	229.003667	4.6
173	2560.111071	0.000000	0.000053	221.367353	5.3
174	2438.982971	0.000000	0.000053	231.492570	4.6
175	2541.273111	0.000000	0.000053	222.731049	4.8
176	2654.534550	0.000000	0.000053	240.073164	4.5
177	2814.915595	0.000000	0.000053	263.601674	4.5
178	2542.576395	0.000000	0.000053	236.513221	4.5
179	2526.220911	0.000000	0.000053	219.485714	3.8
180	2499.787973	0.000000	0.000053	216.312645	4.2
181	2408.108227	0.000000	0.000053	211.724105	4.3
182	2589.467986	0.000000	0.000053	249.733952	4.5
183	2723.892846	0.000000	0.000053	236.589962	3.3
184	2537.370047	0.000000	0.000053	243.226434	4.3
185	2544.348149	0.000000	0.000053	227.442104	6.8
186	2495.106465	0.000000	0.000053	227.714873	5.0
187	2694.223748	0.000000	0.000053	241.031665	5.6
188	2431.201704	0.000000	0.000053	228.587456	4.7
189	2501.808123	0.000000	0.000053	217.789016	4.6
190	2473.989244	0.000000	0.000053	236.542198	4.4
191	2468.649668	0.000000	0.000053	212.672309	3.7
192	2391.593898	0.000000	0.000053	209.287433	3.7
193	2741.020004	0.000000	0.000053	257.881512	3.8
194	2364.724588	0.000000	0.000053	231.168922	3.9
195	2609.087928	0.000000	0.000053	238.350330	3.6
196	2572.119905	0.000000	0.000053	230.666711	4.2
197	2425.944432	0.000000	0.000053	224.393629	5.4
198	2425.276242	0.000000	0.000053	221.859579	7.4
199	2520.451103	0.000000	0.000053	291.496895	5.0
200	2454.758210	0.000000	0.000053	244.176349	6.2
201	2423.931615	0.000000	0.000053	274.320170	5.7
202	2628.260431	0.000000	0.000053	292.832234	5.3
203	2626.727671	0.000000	0.000053	228.558549	5.1
204	2693.795468	0.000000	0.000053	248.534079	5.3
205	2553.981962	0.000000	0.000053	243.610759	5.1
206	2431.357659	0.000000	0.000053	213.628407	5.1
207	2576.907027	0.000000	0.000053	243.327367	5.3
208	2459.488720	0.000000	0.000053	229.958971	5.2
209	2568.194668	0.000000	0.000053	236.666834	5.6
210	2379.989485	0.000000	0.000053	223.232777	6.1
211	2422.533011	0.000000	0.000053	221.020480	6.7
212	2509.277676	0.000000	0.000053	217.536714	4.7
213	2534.323069	0.000000	0.000053	231.783226	4.9
214	2450.696108	0.000000	0.000053	226.447618	5.2
215	2531.081512	0.000000	0.000053	234.319432	4.7
216	2592.369073	0.000000	0.000053	232.271179	4.8
217	2479.527190	0.000000	0.000053	233.836519	5.1
218	2575.293543	0.000000	0.000053	245.902931	5.6
219	2372.944113	0.000000	0.000053	236.832918	4.5
220	2508.618108	0.000000	0.000053	268.042558	4.5
221	2296.071141	0.000000	0.000053	305.234083	4.2
222	2601.450889	0.000000	0.000053	313.270885	3.7
223	2246.857985	0.000967	0.000053	234.734615	4.3
224	2402.840669	0.000000	0.000053	231.468648	3.5
225	2617.406297	0.000000	0.000053	231.527103	3.5
226	2508.613729	0.000000	0.000053	268.886500	4.9
227	2474.033258	0.000000	0.000053	228.928743	3.6
228	2387.239196	0.000000	0.000053	215.223467	3.5
229	2502.541778	0.000000	0.000053	223.296246	3.4
230	2268.807687	0.000000	0.000053	202.441702	4.6
231	2229.334919	0.000000	0.000053	338.812903	3.4
232	2562.565183	0.000000	0.000053	232.309334	3.4
233	2245.774735	0.000000	0.000053	205.230515	5.5
234	2393.559908	0.000000	0.000053	298.965997	4.9
235	2224.595939	0.000000	0.000053	223.797588	6.7
236	2362.581907	0.000000	0.000053	208.872203	4.8
237	2353.481414	0.000000	0.000053	229.691246	4.0
238	2347.510510	0.000000	0.000053	209.847146	3.9
239	2547.238501	0.000000	0.000053	278.004179	4.9
240	2382.514743	0.000000	0.000053	229.846470	5.6
241	2376.655677	0.000000	0.000053	228.641397	5.4
242	2403.425296	0.000000	0.000053	212.921116	5.3
243	2450.043590	0.000000	0.000053	250.149668	5.7
244	2190.859167	0.000000	0.000053	196.998527	4.9
245	2242.723257	0.000000	0.000053	217.906550	4.0
246	2475.587955	0.000000	0.000053	217.817383	4.3
247	2288.799843	0.000000	0.000053	254.493890	5.3
248	2387.725637	0.000000	0.000053	213.412067	4.0
249	2322.387791	0.000000	0.000053	234.861594	6.0
250	2375.809390	0.000000	0.000053	214.964013	3.8
251	2426.883251	0.000000	0.000053	294.877411	3.2
252	2333.839391	0.000000	0.000053	233.793445	3.1
253	2271.659224	0.000000	0.000053	225.002442	2.9
254	2400.672406	0.000000	0.000053	254.021079	3.1
255	2285.389306	0.000000	0.000053	210.312913	4.2
256	2275.969500	0.000000	0.000053	203.212796	3.0
257	2371.435432	0.000000	0.000053	235.358748	7.2
258	2478.134421	0.000000	0.000053	224.032703	3.2
259	2200.454010	0.000000	0.000053	193.369334	4.4
260	2230.378414	0.000000	0.000053	230.654796	4.7
261	2374.516504	0.000000	0.000053	233.681816	4.3
262	2458.904796	0.000000	0.000053	246.527352	4.9
263	2242.772944	0.000000	0.000053	257.357186	4.7
264	2502.927064	0.000000	0.000053	393.951245	2.5
265	2243.718597	0.001531	0.000053	228.405701	7.0
266	2195.518560	0.000000	0.000053	199.721143	4.3
267	2433.532585	0.000000	0.000053	215.519894	4.3
268	2242.507162	0.000000	0.000053	214.730048	3.3
269	2285.339135	0.000000	0.000053	207.032437	3.0
270	2267.928959	0.000000	0.000053	223.294540	6.2
271	2321.720675	0.000000	0.000053	202.812883	3.2
272	2207.642028	0.000000	0.000053	202.700038	3.2
273	2327.829171	0.000000	0.000053	213.243351	3.4
274	2257.862011	0.000000	0.000053	209.365273	4.9
275	2242.156491	0.000000	0.000053	274.881824	3.7
276	2439.739426	0.000000	0.000053	223.627204	3.9
277	2168.919344	0.000000	0.000053	211.749605	3.8
278	2426.746538	0.000000	0.000053	250.618682	3.4
279	2421.958472	0.000000	0.000053	219.628869	5.9
280	2361.101965	0.000000	0.000053	217.304606	3.2
281	2176.769368	0.000000	0.000053	243.220264	3.4
282	2236.018324	0.000000	0.000053	228.000132	3.4
283	2391.354384	0.000000	0.000053	224.803833	3.4
284	2281.649001	0.000000	0.000053	220.093276	5.5
285	2320.191341	0.000000	0.000053	287.255419	3.5
286	2241.429364	0.000000	0.000053	211.156509	3.7
287	2091.305300	0.000000	0.000053	206.650652	6.5
288	2077.747934	0.000000	0.000053	186.919678	4.6
289	2352.701341	0.000000	0.000053	210.417048	5.9
290	2215.396728	0.000000	0.000053	237.481526	5.3
291	2364.714616	0.000000	0.000053	227.341024	5.0
292	2270.585452	0.000000	0.000053	207.559187	5.3
293	2375.374073	0.000000	0.000053	247.189411	5.2
294	2166.414556	0.000000	0.000053	198.059010	5.1
295	2263.624501	0.000000	0.000053	198.984207	7.2
296	2233.251343	0.000000	0.000053	225.535157	4.1
297	2126.443900	0.000000	0.000053	237.064785	5.5
298	2225.295978	0.000000	0.000053	201.709785	5.6
299	2407.600866	0.000000	0.000053	288.210117	3.4
300	2198.199207	0.000000	0.000053	201.005122	3.3
301	2243.291027	0.000000	0.000053	211.114832	2.8
302	2072.620796	0.000000	0.000053	233.690734	3.3
303	2196.633778	0.000000	0.000053	213.827509	5.6
304	2407.619025	0.000000	0.000053	396.932060	3.6
305	2225.514363	0.000000	0.000053	233.568358	3.6
306	2182.000817	0.000000	0.000053	209.949950	3.8
307	2138.730641	0.000000	0.000053	202.716021	3.1
308	2183.587620	0.000000	0.000053	229.547520	4.2
309	2237.037627	0.000000	0.000053	206.589477	3.3
310	2153.669731	0.000000	0.000053	205.496927	3.3
311	2258.644010	0.000000	0.000053	210.484345	3.5
312	2052.229765	0.000000	0.000053	213.249978	2.7
313	2094.242317	0.000000	0.000053	195.627058	2.8
314	2199.870538	0.000000	0.000053	219.028330	3.9
315	2038.014308	0.000000	0.000053	191.094084	3.7
316	2063.906075	0.000000	0.000053	189.527512	2.8
317	2152.487447	0.000000	0.000053	193.969571	2.7
318	2205.781311	0.000000	0.000053	243.391589	2.8
319	2145.809843	0.000000	0.000053	197.989770	4.1
320	2240.530741	0.000000	0.000053	205.821775	3.6
321	2172.981091	0.000000	0.000053	236.273377	2.9
322	2180.949514	0.000000	0.000053	201.330610	2.8
323	2134.456824	0.000000	0.000053	196.477980	4.8
324	2156.358213	0.000000	0.000053	207.580481	4.9
325	2263.668276	0.000000	0.000053	222.419663	3.1
326	2148.106479	0.000000	0.000053	199.263006	2.8
327	2229.051732	0.000000	0.000053	211.673439	3.7
328	2220.596572	0.000000	0.000053	222.229028	5.9
329	2139.953085	0.000000	0.000053	208.998389	4.2
330	2244.305860	0.000000	0.000053	229.427152	5.0
331	2097.169676	0.000000	0.000053	191.480867	3.6
332	2231.419080	0.000000	0.000053	218.806953	3.5
333	2122.383430	0.000000	0.000053	222.167980	3.6
334	2146.248288	0.000000	0.000053	220.445230	4.3
335	2087.340092	0.000000	0.000053	198.378214	3.5
336	2100.036687	0.000000	0.000053	217.673923	5.3
337	2195.431204	0.000000	0.000053	215.007272	5.7
338	2335.566399	0.000000	0.000053	218.974785	5.2
339	2050.430861	0.000000	0.000053	199.396207	4.7
340	2171.306806	0.000000	0.000053	234.186790	5.6
341	2096.812961	0.000000	0.000053	203.617675	4.9
342	2208.297997	0.000000	0.000053	214.985100	3.6
343	2136.471551	0.000000	0.000053	211.550201	3.8
344	2056.845628	0.000000	0.000053	236.285456	5.3
345	2129.649253	0.000000	0.000053	225.307931	3.5
346	2030.874681	0.000000	0.000053	190.222196	5.2
347	2097.037647	0.000000	0.000053	197.948438	4.9
348	2172.081483	0.000000	0.000053	199.623120	4.8
349	2114.858081	0.000000	0.000053	194.225866	5.2
350	2129.628149	0.000000	0.000053	197.092475	5.0
351	2215.991468	0.000000	0.000053	206.804816	5.2
352	2131.902631	0.000000	0.000053	212.954472	5.3
353	2122.473855	0.000000	0.000053	200.975502	4.9
354	1984.232909	0.000000	0.000053	197.613988	4.5
355	2161.378421	0.000000	0.000053	196.901296	5.1
356	1995.688738	0.000000	0.000053	217.444693	4.9
357	2232.029077	0.000000	0.000053	258.173205	4.2
358	2120.136344	0.000000	0.000053	204.348523	4.9
359	2186.047156	0.000000	0.000053	208.643585	4.7
360	2270.816636	0.000000	0.000053	224.502756	3.7
361	2227.967802	0.000000	0.000053	222.353362	3.7
362	2013.380807	0.000000	0.000053	192.542698	4.0
363	2096.572748	0.000000	0.000053	204.768266	3.8
364	2254.233031	0.000000	0.000053	207.000420	4.6
365	2341.589041	0.000000	0.000053	305.465630	3.6
366	2107.918803	0.000000	0.000053	195.918374	3.7
367	2092.987239	0.000000	0.000053	194.383212	4.5
368	2053.050201	0.000000	0.000053	228.713090	4.0
369	1987.185475	0.000000	0.000053	198.087728	3.4
370	2094.779399	0.000000	0.000053	207.146041	3.6
371	2337.576552	0.000000	0.000053	349.757402	3.6
372	2034.823231	0.000000	0.000053	202.975002	3.6
373	2116.754743	0.000000	0.000053	223.290845	4.0
374	2132.983902	0.000000	0.000053	212.053386	5.2
375	2102.950962	0.000000	0.000053	202.470443	4.0
376	2236.843790	0.000000	0.000053	236.051523	3.9
377	2028.611103	0.000000	0.000053	189.416391	3.8
378	1992.978509	0.000000	0.000053	253.856060	3.6
379	2166.702505	0.000000	0.000053	220.246440	3.6
380	2134.970250	0.000000	0.000053	209.132336	3.8
381	2049.952482	0.000000	0.000053	191.535361	3.4
382	2202.764126	0.000000	0.000053	269.515990	3.3
383	2171.720024	0.000000	0.000053	253.409407	3.4
384	1978.404896	0.000000	0.000053	202.088396	3.4
385	2150.995452	0.000000	0.000053	216.410761	4.9
386	1997.401876	0.000000	0.000053	197.660723	3.6
387	2240.956960	0.000000	0.000053	217.669108	3.7
388	2134.795367	0.000000	0.000053	211.593719	6.4
389	2066.660729	0.000000	0.000053	205.299396	3.7
390	1995.234915	0.000000	0.000053	218.075676	4.7
391	2060.223685	0.000000	0.000053	202.920870	5.6
392	2009.766170	0.000000	0.000053	201.753354	5.4
393	2088.486125	0.000000	0.000053	199.437054	5.3
394	2093.003464	0.000000	0.000053	195.897110	5.9
395	1960.802337	0.000000	0.000053	227.538087	5.9
396	2013.765804	0.000000	0.000053	206.995255	4.4
397	1921.026059	0.000000	0.000053	178.810888	5.6
398	1936.991180	0.000000	0.000053	192.160157	4.6
399	2133.661735	0.000000	0.000053	214.196735	4.7
400	2066.225883	0.000000	0.000053	215.581622	4.7
401	2160.458380	0.000000	0.000053	205.257810	5.2
402	1963.830884	0.000000	0.000053	208.620531	5.0
403	1951.519908	0.000000	0.000053	183.076168	4.9
404	1987.454893	0.000000	0.000053	189.713133	4.0
405	2158.139213	0.000000	0.000053	248.732890	2.7
406	2152.040566	0.000000	0.000053	200.013417	4.6
